  6.0223444e-001  1.8092252e-001  4.2263459e-001  3.8022067e-002  2.5063196e-001  1.1435316e-002  2.8469413e-001  2.6152320e-001 -5.1686379e-002  1.2360902e+000  2.0731765e-001 -2.4075388e-002  1.6115367e+000  3.3275001e-002  1.4372377e-001  1.8703187e-001  4.9518282e-001  4.7481622e-001  2.2093766e-001  6.2096872e-001  6.5613537e-001  5.3065341e-002  1.8024899e-001  2.3570724e-001  2.2288107e+000  1.5085124e-001  4.9350115e-002  3.2441972e-001  1.9545047e-001  4.8483073e-001  1.8760977e+000  3.2989914e-001
  6.1558286e-001  1.9684959e-001  3.9566685e-001  4.5386269e-002  2.8442870e-001  2.7975826e-002  3.0689340e-001  2.5001555e-001 -1.2761417e-002  1.1909403e+000  1.9674567e-001  4.3239618e-002  1.4379638e+000  3.8676906e-002  1.8775610e-001  1.9230089e-001  4.5207071e-001  5.3923987e-001  2.0416081e-001  5.9043129e-001  6.4705266e-001  6.9098289e-002  1.9264162e-001  2.5636374e-001  2.0698923e+000  1.7906687e-001  6.1539802e-002  3.2944995e-001  1.8646012e-001  4.4964790e-001  1.6946723e+000  3.4323760e-001
  6.3081450e-001  2.1267639e-001  3.6928210e-001  5.2103196e-002  3.1844827e-001  4.5002213e-002  3.2749267e-001  2.4008539e-001  2.4531974e-002  1.1501379e+000  1.8715279e-001  1.0878137e-001  1.2694953e+000  4.3757684e-002  2.3427236e-001  2.0186028e-001  4.1156612e-001  6.0250096e-001  1.8887641e-001  5.5840036e-001  6.4150112e-001  8.5042076e-002  2.0602717e-001  2.7827064e-001  1.9224568e+000  2.0713039e-001  7.4427644e-002  3.3814504e-001  1.7983640e-001  4.1490626e-001  1.5173988e+000  3.5925788e-001
  6.4886203e-001  2.2804027e-001  3.4402394e-001  5.7903903e-002  3.5254474e-001  6.2470252e-002  3.4616503e-001  2.3221202e-001  5.9607184e-002  1.1152724e+000  1.7907140e-001  1.7136385e-001  1.1098780e+000  4.8473620e-002  2.8275302e-001  2.1626066e-001  3.7486210e-001  6.6308184e-001  1.7548278e-001  5.2567509e-001  6.3995540e-001  1.0068192e-001  2.2038840e-001  3.0122727e-001  1.7899393e+000  2.3434571e-001  8.7909459e-002  3.5075300e-001  1.7614240e-001  3.8137955e-001  1.3487371e+000  3.7802483e-001
  6.6971826e-001  2.4268630e-001  3.1998858e-001  6.2596635e-002  3.8654250e-001  8.0361491e-002  3.6291698e-001  2.2658098e-001  9.2021211e-002  1.0859985e+000  1.7246730e-001  2.2990222e-001  9.6251791e-001  5.2788800e-002  3.3297073e-001  2.3596090e-001  3.4300303e-001  7.2034923e-001  1.6444063e-001  4.9329502e-001  6.4264544e-001  1.1586930e-001  2.3560668e-001  3.2498453e-001  1.6749491e+000  2.6006381e-001  1.0208270e-001  3.6741409e-001  1.7583736e-001  3.4963215e-001  1.1924128e+000  3.9948240e-001
  6.9378790e-001  2.5602864e-001  2.9747839e-001  6.6273321e-002  4.2022577e-001  9.8536360e-002  3.7843326e-001  2.2323550e-001  1.2180206e-001  1.0630069e+000  1.6775029e-001  2.8356185e-001  8.2997356e-001  5.6695401e-002  3.8486672e-001  2.6125952e-001  3.1663720e-001  7.7458212e-001  1.5620153e-001  4.6246119e-001  6.4957206e-001  1.3050210e-001  2.5153264e-001  3.4914974e-001  1.5793683e+000  2.8364929e-001  1.1703291e-001  3.8812699e-001  1.7922985e-001  3.2013107e-001  1.0514314e+000  4.2344524e-001
  7.2085543e-001  2.6789433e-001  2.7641612e-001  6.8907743e-002  4.5352007e-001  1.1693604e-001  3.9335741e-001  2.2245394e-001  1.4846644e-001  1.0454456e+000  1.6474304e-001  3.3185460e-001  7.1372330e-001  6.0286684e-002  4.3832866e-001  2.9223467e-001  2.9595428e-001  8.2670149e-001  1.5115504e-001  4.3439000e-001  6.6015058e-001  1.4460098e-001  2.6795241e-001  3.7343225e-001  1.5015618e+000  3.0447585e-001  1.3280405e-001  4.1264972e-001  1.8652635e-001  2.9331595e-001  9.2808213e-001  4.4919246e-001
  7.5072841e-001  2.7778689e-001  2.5710618e-001  7.0668468e-002  4.8612541e-001  1.3548770e-001  4.0850815e-001  2.2390179e-001  1.7230558e-001  1.0329368e+000  1.6373282e-001  3.7476411e-001  6.1435555e-001  6.3689972e-002  4.9298542e-001  3.2873145e-001  2.8073148e-001  8.7720004e-001  1.4975870e-001  4.0981743e-001  6.7418879e-001  1.5813827e-001  2.8472558e-001  3.9764936e-001  1.4405988e+000  3.2237194e-001  1.4945492e-001  4.4050889e-001  1.9792364e-001  2.6953492e-001  8.2372757e-001  4.7610256e-001
  7.8284791e-001  2.8599753e-001  2.3983726e-001  7.1778784e-002  5.1796072e-001  1.5408996e-001  4.2441479e-001  2.2789141e-001  1.9322758e-001  1.0243241e+000  1.6450423e-001  4.1275667e-001  5.3169383e-001  6.7035586e-002  5.4833714e-001  3.7039797e-001  2.7044164e-001  9.2613040e-001  1.5210983e-001  3.8938990e-001  6.9188660e-001  1.7102378e-001  3.0186165e-001  4.2158472e-001  1.3956445e+000  3.3763480e-001  1.6699055e-001  4.7104142e-001  2.1363799e-001  2.4920590e-001  7.3883075e-001  5.0359643e-001
  8.1639419e-001  2.9267890e-001  2.2520186e-001  7.2393975e-002  5.4858628e-001  1.7267118e-001  4.4161351e-001  2.3416533e-001  2.1132624e-001  1.0184910e+000  1.6717721e-001  4.4654342e-001  4.6505423e-001  7.0426450e-002  6.0400519e-001  4.1666870e-001  2.6441627e-001  9.7306156e-001  1.5837204e-001  3.7361689e-001  7.1355032e-001  1.8307287e-001  3.1966908e-001  4.4497120e-001  1.3647141e+000  3.5056118e-001  1.8532119e-001  5.0322998e-001  2.3389022e-001  2.3264721e-001  6.7384917e-001  5.3113696e-001
  8.5035359e-001  2.9840097e-001  2.1375968e-001  7.2768040e-002  5.7797557e-001  1.9115805e-001  4.6025850e-001  2.4269511e-001  2.2725518e-001  1.0142086e+000  1.7147085e-001  4.7685965e-001  4.1354328e-001  7.3949129e-002  6.5945525e-001  4.6677317e-001  2.6222727e-001  1.0175104e+000  1.6859541e-001  3.6301153e-001  7.3901746e-001  1.9412868e-001  3.3863277e-001  4.6752457e-001  1.3445013e+000  3.6138307e-001  2.0435437e-001  5.3562775e-001  2.5872510e-001  2.2029834e-001  6.2763912e-001  5.5816534e-001
  8.8352079e-001  3.0349435e-001  2.0595306e-001  7.3055332e-002  6.0535235e-001  2.0951005e-001  4.8031430e-001  2.5339406e-001  2.4137728e-001  1.0102750e+000  1.7736613e-001  5.0437651e-001  3.7596409e-001  7.7680933e-002  7.1380426e-001  5.1953103e-001  2.6392763e-001  1.0588280e+000  1.8271844e-001  3.5752827e-001  7.6815838e-001  2.0396286e-001  3.5904771e-001  4.8887139e-001  1.3320794e+000  3.7036859e-001  2.2393281e-001  5.6664099e-001  2.8822499e-001  2.1201839e-001  5.9940356e-001  5.8392693e-001
  9.1410405e-001  3.0829136e-001  2.0242616e-001  7.3420091e-002  6.3061635e-001  2.2771417e-001  5.0171468e-001  2.6587180e-001  2.5459210e-001  1.0057091e+000  1.8468589e-001  5.2975939e-001  3.5070374e-001  8.1691995e-002  7.6582895e-001  5.7351144e-001  2.6973894e-001  1.0956788e+000  2.0066167e-001  3.5702685e-001  8.0092066e-001  2.1240466e-001  3.8107222e-001  5.0903729e-001  1.3246449e+000  3.7774722e-001  2.4384320e-001  5.9485657e-001  3.2246233e-001  2.0763133e-001  5.8847603e-001  6.0737006e-001
  9.4134924e-001  3.1305029e-001  2.0330042e-001  7.3972712e-002  6.5286151e-001  2.4586468e-001  5.2378883e-001  2.8011760e-001  2.6758001e-001  1.0001347e+000  1.9345249e-001  5.5356411e-001  3.3572376e-001  8.6057001e-002  8.1459720e-001  6.2701783e-001  2.7960154e-001  1.1268663e+000  2.2234951e-001  3.6140402e-001  8.3697813e-001  2.1954184e-001  4.0474576e-001  5.2817281e-001  1.3196830e+000  3.8376784e-001  2.6402105e-001  6.1912151e-001  3.6154270e-001  2.0686109e-001  5.9424340e-001  6.2757908e-001
  9.6385440e-001  3.1799985e-001  2.0934220e-001  7.4814672e-002  6.7242277e-001  2.6412633e-001  5.4596446e-001  2.9551409e-001  2.8109799e-001  9.9334068e-001  2.0363392e-001  5.7615514e-001  3.2868567e-001  9.0861208e-002  8.5960880e-001  6.7849966e-001  2.9310572e-001  1.1523316e+000  2.4742819e-001  3.7039271e-001  8.7589247e-001  2.2573516e-001  4.3003360e-001  5.4658417e-001  1.3159879e+000  3.8856516e-001  2.8447465e-001  6.3819800e-001  4.0554263e-001  2.0934291e-001  6.1575751e-001  6.4456688e-001
  9.8234458e-001  3.2335232e-001  2.2026689e-001  7.6025781e-002  6.8869545e-001  2.8278274e-001  5.6751807e-001  3.1178682e-001  2.9565361e-001  9.8569110e-001  2.1524668e-001  5.9781318e-001  3.2706138e-001  9.6118367e-002  9.0067212e-001  7.2693144e-001  3.0963827e-001  1.1729971e+000  2.7567050e-001  3.8377748e-001  9.1707496e-001  2.3138990e-001  4.5663732e-001  5.6457945e-001  1.3130474e+000  3.9245579e-001  3.0508873e-001  6.5089816e-001  4.5439690e-001  2.1461866e-001  6.5174250e-001  6.5885184e-001
  9.9692366e-001  3.2922431e-001  2.3702644e-001  7.7643187e-002  7.0245074e-001  3.0204271e-001  5.8787351e-001  3.2851475e-001  3.1192507e-001  9.7751026e-001  2.2834377e-001  6.1900384e-001  3.2844238e-001  1.0183147e-001  9.3824975e-001  7.7183916e-001  3.2869075e-001  1.1902484e+000  3.0679079e-001  4.0063378e-001  9.5951360e-001  2.3690448e-001  4.8430618e-001  5.8212034e-001  1.3100765e+000  3.9600221e-001  3.2562737e-001  6.5613997e-001  5.0797374e-001  2.2193135e-001  7.0087445e-001  6.7114278e-001
  1.0093166e+000  3.3566459e-001  2.5892614e-001  7.9780795e-002  7.1362668e-001  3.2203092e-001  6.0639187e-001  3.4535597e-001  3.3033367e-001  9.6947880e-001  2.4298137e-001  6.4022740e-001  3.3113481e-001  1.0798496e-001  9.7339781e-001  8.1375296e-001  3.5005928e-001  1.2057417e+000  3.4035013e-001  4.2035493e-001  1.0014540e+000  2.4254623e-001  5.1272173e-001  5.9897129e-001  1.3060893e+000  3.9991328e-001  3.4565276e-001  6.5318151e-001  5.6572774e-001  2.3076354e-001  7.6227505e-001  6.8216017e-001
  1.0208207e+000  3.4268623e-001  2.8710179e-001  8.2450732e-002  7.2318715e-001  3.4302802e-001  6.2286062e-001  3.6196652e-001  3.5118506e-001  9.6236468e-001  2.5941164e-001  6.6184910e-001  3.3427219e-001  1.1460582e-001  1.0074812e+000  8.5415904e-001  3.7360575e-001  1.2204801e+000  3.7573213e-001  4.4241496e-001  1.0411635e+000  2.4839018e-001  5.4159697e-001  6.1500309e-001  1.3006277e+000  4.0485799e-001  3.6460111e-001  6.4225999e-001  6.2677335e-001  2.4079138e-001  8.3423101e-001  6.9222117e-001
  1.0329316e+000  3.5028388e-001  3.2046544e-001  8.5669703e-002  7.3138681e-001  3.6503782e-001  6.3750835e-001  3.7817267e-001  3.7503182e-001  9.5689216e-001  2.7770614e-001  6.8393299e-001  3.3764956e-001  1.2170674e-001  1.0417649e+000  8.9493151e-001  3.9904639e-001  1.2354157e+000  4.1213013e-001  4.6630784e-001  1.0771933e+000  2.5439472e-001  5.7063281e-001  6.3051594e-001  1.2936952e+000  4.1125499e-001  3.8208475e-001  6.2443937e-001  6.8997616e-001  2.5188207e-001  9.1536026e-001  7.0128985e-001
  1.0466987e+000  3.5847895e-001  3.6001264e-001  8.9529059e-002  7.3891873e-001  3.8815378e-001  6.5047469e-001  3.9369636e-001  4.0159792e-001  9.5405211e-001  2.9817163e-001  7.0629728e-001  3.4136695e-001  1.2936449e-001  1.0767266e+000  9.3778682e-001  4.2593206e-001  1.2517844e+000  4.4869466e-001  4.9136317e-001  1.1084641e+000  2.6043216e-001  5.9956216e-001  6.4602683e-001  1.2856429e+000  4.1934622e-001  3.9777274e-001  6.0189846e-001  7.5388887e-001  2.6395668e-001  1.0045291e+000  7.0905824e-001
  1.0628638e+000  3.6723001e-001  4.0460959e-001  9.3977175e-002  7.4625317e-001  4.1276116e-001  6.6233265e-001  4.0828771e-001  4.3115228e-001  9.5417550e-001  3.2076165e-001  7.2900742e-001  3.4557182e-001  1.3770334e-001  1.1121430e+000  9.8415539e-001  4.5375206e-001  1.2702446e+000  4.8456407e-001  5.1699536e-001  1.1355411e+000  2.6629977e-001  6.2811422e-001  6.6216592e-001  1.2768960e+000  4.2947786e-001  4.1148307e-001  5.7746667e-001  8.1698676e-001  2.7692265e-001  1.1005897e+000  7.1538528e-001
  1.0814709e+000  3.7667775e-001  4.5480887e-001  9.9070783e-002  7.5395413e-001  4.3867770e-001  6.7364777e-001  4.2166229e-001  4.6355587e-001  9.5759435e-001  3.4587816e-001  7.5293816e-001  3.5036590e-001  1.4691918e-001  1.1473485e+000  1.0352236e+000  4.8183917e-001  1.2907696e+000  5.1895500e-001  5.4299969e-001  1.1591143e+000  2.7181360e-001  6.5589052e-001  6.7922370e-001  1.2676292e+000  4.4238289e-001  4.2346393e-001  5.5382177e-001  8.7808957e-001  2.9063882e-001  1.2021991e+000  7.2033435e-001
  1.1026393e+000  3.8700072e-001  5.0958344e-001  1.0486185e-001  7.6252957e-001  4.6593440e-001  6.8524400e-001  4.3362753e-001  4.9853006e-001  9.6422421e-001  3.7335751e-001  7.7907142e-001  3.5587024e-001  1.5707621e-001  1.1815355e+000  1.0916965e+000  5.0971492e-001  1.3127311e+000  5.5149084e-001  5.6928070e-001  1.1797914e+000  2.7687182e-001  6.8240069e-001  6.9740925e-001  1.2576410e+000  4.5908945e-001  4.3394196e-001  5.3318483e-001  9.3648218e-001  3.0486591e-001  1.3078593e+000  7.2406860e-001
  1.1257886e+000  3.9865147e-001  5.6902975e-001  1.1130156e-001  7.7206957e-001  4.9466736e-001  6.9791353e-001  4.4425617e-001  5.3636568e-001  9.7371450e-001  4.0355948e-001  8.0786309e-001  3.6242084e-001  1.6818342e-001  1.2143714e+000  1.1536778e+000  5.3761605e-001  1.3350560e+000  5.8198044e-001  5.9571241e-001  1.1979789e+000  2.8139778e-001  7.0698440e-001  7.1692451e-001  1.2465207e+000  4.8025305e-001  4.4313503e-001  5.1742343e-001  9.9172097e-001  3.1911639e-001  1.4162023e+000  7.2676818e-001
  1.1506190e+000  4.1188566e-001  6.3243117e-001  1.1844026e-001  7.8287309e-001  5.2457826e-001  7.1236259e-001  4.5320525e-001  5.7668690e-001  9.8560393e-001  4.3598358e-001  8.3934622e-001  3.7045565e-001  1.8019203e-001  1.2467106e+000  1.2206377e+000  5.6648642e-001  1.3566898e+000  6.1020813e-001  6.2224762e-001  1.2142713e+000  2.8551665e-001  7.2900139e-001  7.3764733e-001  1.2346505e+000  5.0653901e-001  4.5153148e-001  5.0811740e-001  1.0439909e+000  3.3266506e-001  1.5259155e+000  7.2910591e-001
  1.1760533e+000  4.2736042e-001  6.9963992e-001  1.2620835e-001  7.9466789e-001  5.5561959e-001  7.2917236e-001  4.6061022e-001  6.1962529e-001  9.9930232e-001  4.7070735e-001  8.7344702e-001  3.8015665e-001  1.9305214e-001  1.2799882e+000  1.2916086e+000  5.9727804e-001  1.3768481e+000  6.3601494e-001  6.4904277e-001  1.2289185e+000  2.8944711e-001  7.4799382e-001  7.5929274e-001  1.2230241e+000  5.3851174e-001  4.5949305e-001  5.0649103e-001  1.0937692e+000  3.4476543e-001  1.6350989e+000  7.3188153e-001
  1.2009398e+000  4.4518526e-001  7.6994678e-001  1.3451985e-001  8.0741742e-001  5.8766622e-001  7.4816482e-001  4.6620579e-001  6.6493815e-001  1.0146354e+000  5.0700314e-001  9.1006492e-001  3.9150393e-001  2.0666448e-001  1.3155935e+000  1.3656118e+000  6.3038307e-001  1.3949187e+000  6.5941995e-001  6.7621109e-001  1.2416900e+000  2.9344010e-001  7.6377792e-001  7.8152017e-001  1.2128285e+000  5.7642336e-001  4.6730491e-001  5.1337988e-001  1.1413569e+000  3.5474447e-001  1.7413314e+000  7.3613107e-001
  1.2241862e+000  4.6633489e-001  8.4256221e-001  1.4332362e-001  8.2073485e-001  6.2030235e-001  7.6921328e-001  4.7008608e-001  7.1207444e-001  1.0311641e+000  5.4475130e-001  9.4893631e-001  4.0449432e-001  2.2090878e-001  1.3543090e+000  1.4416687e+000  6.6560931e-001  1.4102972e+000  6.8086286e-001  7.0371616e-001  1.2524610e+000  2.9800989e-001  7.7654844e-001  8.0387676e-001  1.2048311e+000  6.2031360e-001  4.7517112e-001  5.2922431e-001  1.1866793e+000  3.6206844e-001  1.8414801e+000  7.4373121e-001
  1.2443981e+000  4.9090578e-001  9.1635971e-001  1.5238585e-001  8.3458227e-001  6.5320465e-001  7.9173073e-001  4.7269816e-001  7.6056664e-001  1.0487703e+000  5.8324270e-001  9.8979111e-001  4.1900914e-001  2.3564696e-001  1.3962610e+000  1.5185613e+000  7.0223876e-001  1.4223377e+000  7.0101545e-001  7.3145794e-001  1.2616031e+000  3.0377458e-001  7.8639154e-001  8.2580489e-001  1.1994688e+000  6.6926568e-001  4.8315722e-001  5.5407551e-001  1.2295765e+000  3.6680230e-001  1.9312660e+000  7.5599725e-001
  1.2610740e+000  5.2044166e-001  9.9015201e-001  1.6153468e-001  8.4891467e-001  6.8602377e-001  8.1497524e-001  4.7466016e-001  8.0923125e-001  1.0669107e+000  6.2197619e-001  1.0326031e+000  4.3487210e-001  2.5066496e-001  1.4407940e+000  1.5950641e+000  7.3907591e-001  1.4306308e+000  7.2068461e-001  7.5957300e-001  1.2696276e+000  3.1130362e-001  7.9345338e-001  8.4651724e-001  1.1972524e+000  7.2230554e-001  4.9123174e-001  5.8756980e-001  1.2696424e+000  3.6960193e-001  2.0052875e+000  7.7390222e-001
  1.2739520e+000  5.5472945e-001  1.0625493e+000  1.7059156e-001  8.6419979e-001  7.1865477e-001  8.3792909e-001  4.7676500e-001  8.5679775e-001  1.0850502e+000  6.6036897e-001  1.0773368e+000  4.5197150e-001  2.6563522e-001  1.4863586e+000  1.6698945e+000  7.7431951e-001  1.4355733e+000  7.4064578e-001  7.8838957e-001  1.2770486e+000  3.2112985e-001  7.9820801e-001  8.6448024e-001  1.1986201e+000  7.7853543e-001  4.9939345e-001  6.2896146e-001  1.3058629e+000  3.7110994e-001  2.0578121e+000  7.9812738e-001
  1.2835259e+000  5.9572973e-001  1.1325016e+000  1.7946367e-001  8.8075829e-001  7.5126502e-001  8.5922954e-001  4.7970285e-001  9.0144491e-001  1.1024215e+000  6.9781117e-001  1.1235058e+000  4.7001834e-001  2.8022176e-001  1.5306551e+000  1.7412726e+000  8.0588045e-001  1.4387155e+000  7.6147716e-001  8.1816860e-001  1.2845544e+000  3.3401822e-001  8.0160668e-001  8.7840409e-001  1.2032648e+000  8.3693706e-001  5.0760814e-001  6.7704700e-001  1.3367381e+000  3.7187310e-001  2.0844810e+000  8.2918831e-001
  1.2902728e+000  6.4265828e-001  1.1982215e+000  1.8805129e-001  8.9915443e-001  7.8423692e-001  8.7782858e-001  4.8385451e-001  9.4188720e-001  1.1177778e+000  7.3409264e-001  1.1700937e+000  4.8856208e-001  2.9423288e-001  1.5710789e+000  1.8073548e+000  8.3236749e-001  1.4411678e+000  7.8353981e-001  8.4897240e-001  1.2927639e+000  3.5020083e-001  8.0433087e-001  8.8710654e-001  1.2105415e+000  8.9614671e-001  5.1571401e-001  7.2990358e-001  1.3613030e+000  3.7240900e-001  2.0827389e+000  8.6645297e-001
  1.2944392e+000  6.9733054e-001  1.2588492e+000  1.9620304e-001  9.1923792e-001  8.1789714e-001  8.9265288e-001  4.8944277e-001  9.7582642e-001  1.1303377e+000  7.6882876e-001  1.2157490e+000  5.0685981e-001  3.0772532e-001  1.6051069e+000  1.8671915e+000  8.5345567e-001  1.4439074e+000  8.0675957e-001  8.8055024e-001  1.3022718e+000  3.7002345e-001  8.0704142e-001  8.8940191e-001  1.2195714e+000  9.5450055e-001  5.2339652e-001  7.8504532e-001  1.3787685e+000  3.7315127e-001  2.0546811e+000  9.0931650e-001
  1.2961894e+000  7.5862043e-001  1.3117947e+000  2.0372240e-001  9.4152884e-001  8.5263119e-001  9.0437303e-001  4.9669822e-001  1.0026187e+000  1.1394638e+000  8.0210564e-001  1.2593796e+000  5.2398836e-001  3.2102275e-001  1.6305651e+000  1.9209775e+000  8.6926565e-001  1.4481297e+000  8.3058913e-001  9.1248798e-001  1.3138389e+000  3.9382590e-001  8.1033944e-001  8.8546189e-001  1.2293691e+000  1.0105156e+000  5.3036843e-001  8.4042635e-001  1.3888601e+000  3.7431280e-001  2.0046511e+000  9.5685600e-001
  1.2946799e+000  8.2800098e-001  1.3574748e+000  2.1019917e-001  9.6598173e-001  8.8843643e-001  9.1367765e-001  5.0563607e-001  1.0215512e+000  1.1458278e+000  8.3370754e-001  1.3006489e+000  5.3937250e-001  3.3477439e-001  1.6470939e+000  1.9692241e+000  8.8029506e-001  1.4540621e+000  8.5434918e-001  9.4469599e-001  1.3274052e+000  4.2212724e-001  8.1447579e-001  8.7608155e-001  1.2393700e+000  1.0623377e+000  5.3637264e-001  8.9484689e-001  1.3927380e+000  3.7602949e-001  1.9374813e+000  1.0074975e+000
  1.2895867e+000  9.0417585e-001  1.3942857e+000  2.1555237e-001  9.9324451e-001  9.2516631e-001  9.2202283e-001  5.1684455e-001  1.0323063e+000  1.1500902e+000  8.6370645e-001  1.3396370e+000  5.5318402e-001  3.4971256e-001  1.6542088e+000  2.0121637e+000  8.8717867e-001  1.4611187e+000  8.7805143e-001  9.7742013e-001  1.3422871e+000  4.5466317e-001  8.1931154e-001  8.6206639e-001  1.2497697e+000  1.1079463e+000  5.4104318e-001  9.4739094e-001  1.3934854e+000  3.7842028e-001  1.8577803e+000  1.0594513e+000
  1.2790296e+000  9.8780332e-001  1.4244490e+000  2.1981241e-001  1.0231677e+000  9.6271946e-001  9.3097602e-001  5.3017097e-001  1.0363258e+000  1.1529220e+000  8.9190477e-001  1.3761926e+000  5.6613549e-001  3.6651418e-001  1.6510787e+000  2.0488588e+000  8.9035948e-001  1.4680461e+000  9.0216416e-001  1.0112809e+000  1.3573700e+000  4.9129268e-001  8.2436135e-001  8.4449993e-001  1.2612163e+000  1.1461603e+000  5.4422126e-001  9.9770844e-001  1.3950437e+000  3.8143199e-001  1.7696652e+000  1.1114356e+000
  1.2630227e+000  1.0772456e+000  1.4475732e+000  2.2314267e-001  1.0564956e+000  1.0006475e+000  9.4184073e-001  5.4574372e-001  1.0337167e+000  1.1546580e+000  9.1845466e-001  1.4099994e+000  5.7926446e-001  3.8597817e-001  1.6368917e+000  2.0775139e+000  8.8994914e-001  1.4729537e+000  9.2704056e-001  1.0468894e+000  1.3717811e+000  5.3176797e-001  8.2862527e-001  8.2455797e-001  1.2750142e+000  1.1766614e+000  5.4588549e-001  1.0461842e+000  1.4007994e+000  3.8475950e-001  1.6764042e+000  1.1624091e+000
  1.2398005e+000  1.1720519e+000  1.4653428e+000  2.2597376e-001  1.0928558e+000  1.0385146e+000  9.5554855e-001  5.6325985e-001  1.0260103e+000  1.1552429e+000  9.4348977e-001  1.4409779e+000  5.9347151e-001  4.0838346e-001  1.6112297e+000  2.0955787e+000  8.8571936e-001  1.4744781e+000  9.5274856e-001  1.0845111e+000  1.3856869e+000  5.7560998e-001  8.3077034e-001  8.0292085e-001  1.2922534e+000  1.2010291e+000  5.4604256e-001  1.0936976e+000  1.4128134e+000  3.8811554e-001  1.5801852e+000  1.2113104e+000
  1.2100188e+000  1.2702971e+000  1.4778687e+000  2.2858481e-001  1.1326156e+000  1.0755033e+000  9.7251033e-001  5.8221438e-001  1.0140857e+000  1.1546539e+000  9.6731819e-001  1.4694261e+000  6.0921424e-001  4.3378593e-001  1.5742419e+000  2.1009296e+000  8.7796617e-001  1.4711519e+000  9.7911999e-001  1.1239807e+000  1.3996265e+000  6.2171799e-001  8.2988700e-001  7.7998686e-001  1.3138473e+000  1.2209943e+000  5.4500898e-001  1.1410857e+000  1.4319181e+000  3.9145261e-001  1.4831921e+000  1.2574524e+000
  1.1730969e+000  1.3702229e+000  1.4866379e+000  2.3132385e-001  1.1749665e+000  1.1109284e+000  9.9374453e-001  6.0210922e-001  9.9859499e-001  1.1527399e+000  9.9007228e-001  1.4954758e+000  6.2660940e-001  4.6202891e-001  1.5274812e+000  2.0927928e+000  8.6805673e-001  1.4613555e+000  1.0058829e+000  1.1645193e+000  1.4142767e+000  6.6903277e-001  8.2554003e-001  7.5634906e-001  1.3404990e+000  1.2386332e+000  5.4327188e-001  1.1889177e+000  1.4580752e+000  3.9507409e-001  1.3881257e+000  1.3004743e+000
  1.1302348e+000  1.4693841e+000  1.4927969e+000  2.3446490e-001  1.2197081e+000  1.1438865e+000  1.0193092e+000  6.2224615e-001  9.8107749e-001  1.1496634e+000  1.0120305e+000  1.5187918e+000  6.4548117e-001  4.9286530e-001  1.4727527e+000  2.0714820e+000  8.5753106e-001  1.4441212e+000  1.0324493e+000  1.2046359e+000  1.4298360e+000  7.1630883e-001  8.1770249e-001  7.3249748e-001  1.3722841e+000  1.2559605e+000  5.4130274e-001  1.2373947e+000  1.4904538e+000  3.9929962e-001  1.2971991e+000  1.3401149e+000
  1.0820542e+000  1.5646534e+000  1.4983559e+000  2.3831970e-001  1.2659102e+000  1.1728580e+000  1.0490285e+000  6.4227352e-001  9.6239598e-001  1.1451703e+000  1.0336718e+000  1.5382870e+000  6.6579029e-001  5.2565264e-001  1.4130105e+000  2.0385365e+000  8.4732809e-001  1.4193569e+000  1.0578662e+000  1.2422995e+000  1.4456243e+000  7.6219315e-001  8.0657120e-001  7.0878813e-001  1.4082213e+000  1.2743813e+000  5.3955631e-001  1.2863523e+000  1.5281191e+000  4.0446452e-001  1.2122679e+000  1.3763319e+000
  1.0295810e+000  1.6533199e+000  1.5049800e+000  2.4300813e-001  1.3131897e+000  1.1973948e+000  1.0831411e+000  6.6214445e-001  9.4352230e-001  1.1394319e+000  1.0555708e+000  1.5529184e+000  6.8764834e-001  5.5961695e-001  1.3520332e+000  1.9963100e+000  8.3787413e-001  1.3869819e+000  1.0807007e+000  1.2751991e+000  1.4608245e+000  8.0543119e-001  7.9248597e-001  6.8529192e-001  1.4472343e+000  1.2943394e+000  5.3821701e-001  1.3349158e+000  1.5701879e+000  4.1118639e-001  1.1344927e+000  1.4087941e+000
  9.7384885e-001  1.7324008e+000  1.5140087e+000  2.4860744e-001  1.3608466e+000  1.2162475e+000  1.1208982e+000  6.8201073e-001  9.2514171e-001  1.1321049e+000  1.0780368e+000  1.5614309e+000  7.1104185e-001  5.9396247e-001  1.2937869e+000  1.9470614e+000  8.2933157e-001  1.3473392e+000  1.0992345e+000  1.3008373e+000  1.4749791e+000  8.4465896e-001  7.7539988e-001  6.6200213e-001  1.4878603e+000  1.3152857e+000  5.3751619e-001  1.3811389e+000  1.6156116e+000  4.2030853e-001  1.0641665e+000  1.4366312e+000
  9.1588625e-001  1.8003622e+000  1.5260911e+000  2.5540811e-001  1.4083343e+000  1.2280526e+000  1.1622208e+000  7.0226137e-001  9.0788849e-001  1.1233543e+000  1.1012249e+000  1.5620689e+000  7.3609625e-001  6.2788503e-001  1.2413731e+000  1.8927055e+000  8.2176028e-001  1.3014707e+000  1.1116810e+000  1.3164297e+000  1.4881118e+000  8.7828061e-001  7.5548226e-001  6.3911444e-001  1.5280026e+000  1.3360843e+000  5.3801976e-001  1.4226389e+000  1.6624771e+000  4.3292440e-001  1.0007582e+000  1.4576857e+000
  8.5693621e-001  1.8563564e+000  1.5416944e+000  2.6346368e-001  1.4550089e+000  1.2331899e+000  1.2068209e+000  7.2314253e-001  8.9176165e-001  1.1127008e+000  1.1251233e+000  1.5535129e+000  7.6290310e-001  6.6065188e-001  1.1965087e+000  1.8351993e+000  8.1513637e-001  1.2508617e+000  1.1155522e+000  1.3195007e+000  1.5006133e+000  9.0461760e-001  7.3340921e-001  6.1705548e-001  1.5657505e+000  1.3549318e+000  5.4009088e-001  1.4577953e+000  1.7076650e+000  4.4969809e-001  9.4283000e-001  1.4700856e+000
  7.9796779e-001  1.9001134e+000  1.5605492e+000  2.7306602e-001  1.4997038e+000  1.2306135e+000  1.2538350e+000  7.4488197e-001  8.7672999e-001  1.0999435e+000  1.1497290e+000  1.5356431e+000  7.9090564e-001  6.9171136e-001  1.1601962e+000  1.7757549e+000  8.0965362e-001  1.1971667e+000  1.1090220e+000  1.3098935e+000  1.5131794e+000  9.2226999e-001  7.1057103e-001  5.9605645e-001  1.5994555e+000  1.3698800e+000  5.4400422e-001  1.4861389e+000  1.7477638e+000  4.7121182e-001  8.8854220e-001  1.4723205e+000
  7.3960461e-001  1.9318224e+000  1.5825496e+000  2.8452354e-001  1.5413381e+000  1.2197365e+000  1.3029720e+000  7.6730201e-001  8.6233764e-001  1.0843220e+000  1.1746689e+000  1.5090235e+000  8.1897075e-001  7.2045148e-001  1.1327425e+000  1.7158018e+000  8.0596299e-001  1.1425476e+000  1.0909522e+000  1.2885170e+000  1.5265131e+000  9.2945085e-001  6.8796595e-001  5.7625820e-001  1.6268799e+000  1.3799371e+000  5.5001601e-001  1.5084692e+000  1.7793393e+000  4.9775631e-001  8.3655328e-001  1.4636525e+000
  6.8240073e-001  1.9510719e+000  1.6066361e+000  2.9784535e-001  1.5777382e+000  1.2013530e+000  1.3537672e+000  7.9029891e-001  8.4797364e-001  1.0652675e+000  1.1994443e+000  1.4748908e+000  8.4538938e-001  7.4605574e-001  1.1138876e+000  1.6572185e+000  8.0487895e-001  1.0894616e+000  1.0618799e+000  1.2572903e+000  1.5406424e+000  9.2399489e-001  6.6632655e-001  5.5789907e-001  1.6471748e+000  1.3858430e+000  5.5789018e-001  1.5266033e+000  1.7995055e+000  5.2964464e-001  7.8637743e-001  1.4431870e+000
  6.2635540e-001  1.9586321e+000  1.6318276e+000  3.1339276e-001  1.6078888e+000  1.1749734e+000  1.4056158e+000  8.1366924e-001  8.3270947e-001  1.0420276e+000  1.2238475e+000  1.4346942e+000  8.6764773e-001  7.6722397e-001  1.1033837e+000  1.6017044e+000  8.0742042e-001  1.0397170e+000  1.0240316e+000  1.2183559e+000  1.5549879e+000  9.0615316e-001  6.4621056e-001  5.4087891e-001  1.6605720e+000  1.3889040e+000  5.6717552e-001  1.5430374e+000  1.8061950e+000  5.6684464e-001  7.3778119e-001  1.4125383e+000
  5.7195960e-001  1.9537949e+000  1.6568799e+000  3.3122052e-001  1.6291208e+000  1.1416780e+000  1.4579156e+000  8.3725094e-001  8.1588582e-001  1.0142471e+000  1.2480866e+000  1.3901638e+000  8.8296127e-001  7.8308695e-001  1.1000002e+000  1.5504146e+000  8.1487404e-001  9.9470490e-001  9.8027924e-001  1.1746291e+000  1.5684940e+000  8.7800898e-001  6.2769390e-001  5.2517488e-001  1.6678648e+000  1.3906756e+000  5.7735784e-001  1.5595534e+000  1.7982423e+000  6.0899812e-001  6.9053840e-001  1.3732764e+000
  5.1942712e-001  1.9376912e+000  1.6808622e+000  3.5124733e-001  1.6408961e+000  1.1030570e+000  1.5097687e+000  8.6106536e-001  7.9708832e-001  9.8221313e-001  1.2726494e+000  1.3431211e+000  8.8924909e-001  7.9308791e-001  1.1027723e+000  1.5040305e+000  8.2837568e-001  9.5626560e-001  9.3359743e-001  1.1287393e+000  1.5796544e+000  8.4190009e-001  6.1069877e-001  5.1097869e-001  1.6703587e+000  1.3924151e+000  5.8766511e-001  1.5764631e+000  1.7747989e+000  6.5591432e-001  6.4452509e-001  1.3275141e+000
  4.6947527e-001  1.9093973e+000  1.7035971e+000  3.7368855e-001  1.6403008e+000  1.0596942e+000  1.5602532e+000  8.8526764e-001  7.7649222e-001  9.4618358e-001  1.2980035e+000  1.2952894e+000  8.8556996e-001  7.9766433e-001  1.1108758e+000  1.4625755e+000  8.4849021e-001  9.2514358e-001  8.8667575e-001  1.0827020e+000  1.5875320e+000  7.9993307e-001  5.9516132e-001  4.9840777e-001  1.6709020e+000  1.3947963e+000  5.9725596e-001  1.5925169e+000  1.7355117e+000  7.0743326e-001  6.0001552e-001  1.2777248e+000
  4.2250124e-001  1.8703938e+000  1.7242229e+000  3.9813706e-001  1.6277996e+000  1.0131947e+000  1.6076892e+000  9.1017879e-001  7.5463917e-001  9.0719635e-001  1.3239747e+000  1.2480008e+000  8.7253499e-001  7.9771822e-001  1.1232943e+000  1.4250443e+000  8.7489633e-001  9.0216107e-001  8.4122203e-001  1.0380871e+000  1.5914239e+000  7.5480370e-001  5.8106901e-001  4.8738303e-001  1.6717768e+000  1.3974290e+000  6.0532891e-001  1.6044663e+000  1.6815027e+000  7.6349191e-001  5.5764512e-001  1.2270523e+000
  3.7897108e-001  1.8197087e+000  1.7422901e+000  4.2450656e-001  1.6015805e+000  9.6476614e-001  1.6510735e+000  9.3592356e-001  7.3182275e-001  8.6598648e-001  1.3502167e+000  1.2019683e+000  8.5213886e-001  7.9452882e-001  1.1385692e+000  1.3893632e+000  9.0645465e-001  8.8782607e-001  7.9840900e-001  9.9651154e-001  1.5907162e+000  7.0859698e-001  5.6840673e-001  4.7776144e-001  1.6747417e+000  1.3990690e+000  6.1090312e-001  1.6070817e+000  1.6133473e+000  8.2316064e-001  5.1801101e-001  1.1779760e+000
  3.3921609e-001  1.7599146e+000  1.7563255e+000  4.5263389e-001  1.5634501e+000  9.1532751e-001  1.6892321e+000  9.6244744e-001  7.0845391e-001  8.2367766e-001  1.3761487e+000  1.1578102e+000  8.2640229e-001  7.8888910e-001  1.1548332e+000  1.3535899e+000  9.4197424e-001  8.8251437e-001  7.5887837e-001  9.5908516e-001  1.5844097e+000  6.6296733e-001  5.5689089e-001  4.6939144e-001  1.6805842e+000  1.3981311e+000  6.1403241e-001  1.5958225e+000  1.5316472e+000  8.8537790e-001  4.8152395e-001  1.1325881e+000
  3.0323563e-001  1.6914588e+000  1.7655493e+000  4.8199354e-001  1.5127633e+000  8.6600071e-001  1.7213302e+000  9.8962151e-001  6.8471756e-001  7.8095998e-001  1.4010529e+000  1.1166064e+000  7.9700717e-001  7.8162980e-001  1.1697016e+000  1.3162925e+000  9.8077707e-001  8.8512747e-001  7.2264602e-001  9.2655526e-001  1.5719827e+000  6.1950312e-001  5.4604508e-001  4.6214818e-001  1.6883418e+000  1.3926152e+000  6.1519811e-001  1.5694226e+000  1.4379080e+000  9.4860887e-001  4.4845136e-001  1.0924807e+000
  2.7139423e-001  1.6176704e+000  1.7682448e+000  5.1242034e-001  1.4523088e+000  8.1754880e-001  1.7476528e+000  1.0172293e+000  6.6090934e-001  7.3853916e-001  1.4244693e+000  1.0798319e+000  7.6540527e-001  7.7348308e-001  1.1803694e+000  1.2772579e+000  1.0220144e+000  8.9494392e-001  6.8924771e-001  8.9908954e-001  1.5525585e+000  5.7930559e-001  5.3529547e-001  4.5606668e-001  1.6968237e+000  1.3803939e+000  6.1526969e-001  1.5294291e+000  1.3352471e+000  1.0108872e+000  4.1893842e-001  1.0579085e+000
  2.4325103e-001  1.5397869e+000  1.7636237e+000  5.4374225e-001  1.3826817e+000  7.7106275e-001  1.7672058e+000  1.0449998e+000  6.3729398e-001  6.9703962e-001  1.4455691e+000  1.0487877e+000  7.3273605e-001  7.6522683e-001  1.1836998e+000  1.2379937e+000  1.0643150e+000  9.1133151e-001  6.5783454e-001  8.7639458e-001  1.5252968e+000  5.4345206e-001  5.2405605e-001  4.5146089e-001  1.7050754e+000  1.3607649e+000  6.1526257e-001  1.4779063e+000  1.2277447e+000  1.0698335e+000  3.9312684e-001  1.0287003e+000
  2.1929438e-001  1.4602249e+000  1.7499905e+000  5.7577721e-001  1.3067434e+000  7.2684721e-001  1.7791318e+000  1.0724718e+000  6.1410979e-001  6.5677321e-001  1.4643691e+000  1.0243101e+000  6.9994939e-001  7.5741240e-001  1.1773797e+000  1.2004180e+000  1.1051850e+000  9.3346323e-001  6.2787196e-001  8.5774932e-001  1.4896751e+000  5.1299156e-001  5.1196897e-001  4.4837956e-001  1.7120680e+000  1.3355412e+000  6.1573656e-001  1.4166287e+000  1.1191200e+000  1.1230096e+000  3.7114041e-001  1.0042820e+000
  1.9875328e-001  1.3802161e+000  1.7260675e+000  6.0855292e-001  1.2257971e+000  6.8546680e-001  1.7828020e+000  1.0991697e+000  5.9137147e-001  6.1849571e-001  1.4807420e+000  1.0063463e+000  6.6820137e-001  7.5030593e-001  1.1605316e+000  1.1661081e+000  1.1407176e+000  9.6009794e-001  5.9928210e-001  8.4194599e-001  1.4465068e+000  4.8941309e-001  4.9863180e-001  4.4688150e-001  1.7165624e+000  1.3069989e+000  6.1718403e-001  1.3467633e+000  1.0124549e+000  1.1676490e+000  3.5307770e-001  9.8318996e-001
  1.8215111e-001  1.3009222e+000  1.6908483e+000  6.4205547e-001  1.1421977e+000  6.4786221e-001  1.7756609e+000  1.1245222e+000  5.6898652e-001  5.8255803e-001  1.4955499e+000  9.9426772e-001  6.3889080e-001  7.4408930e-001  1.1345111e+000  1.1361204e+000  1.1658921e+000  9.9017570e-001  5.7265857e-001  8.2793570e-001  1.3970592e+000  4.7285696e-001  4.8356630e-001  4.4692899e-001  1.7170238e+000  1.2775555e+000  6.2012747e-001  1.2692961e+000  9.0995250e-001  1.2014269e+000  3.3896412e-001  9.6337404e-001
  1.6872370e-001  1.2236627e+000  1.6437902e+000  6.7630072e-001  1.0573955e+000  6.1383024e-001  1.7574279e+000  1.1480059e+000  5.4682996e-001  5.4954661e-001  1.5095180e+000  9.8658557e-001  6.1356230e-001  7.3899252e-001  1.1015466e+000  1.1108039e+000  1.1768368e+000  1.0225145e+000  5.4901727e-001  8.1470546e-001  1.3430599e+000  4.6370529e-001  4.6639735e-001  4.4798944e-001  1.7115990e+000  1.2496148e+000  6.2484735e-001  1.1858334e+000  8.1332031e-001  1.2226034e+000  3.2875504e-001  9.4282992e-001
  1.5885319e-001  1.1488444e+000  1.5859534e+000  7.1117275e-001  9.7301883e-001  5.8385720e-001  1.7282398e+000  1.1682449e+000  5.2486361e-001  5.1956407e-001  1.5236199e+000  9.8083725e-001  5.9381576e-001  7.3519433e-001  1.0636225e+000  1.0899844e+000  1.1731391e+000  1.0556617e+000  5.2929871e-001  8.0152725e-001  1.2867623e+000  4.6240566e-001  4.4741941e-001  4.4934035e-001  1.6995171e+000  1.2253752e+000  6.3150955e-001  1.0980152e+000  7.2408486e-001  1.2320913e+000  3.2225567e-001  9.1922553e-001
  1.5205780e-001  1.0775726e+000  1.5181607e+000  7.4612983e-001  8.9045399e-001  5.5852491e-001  1.6879313e+000  1.1844237e+000  5.0331130e-001  4.9272530e-001  1.5384858e+000  9.7409518e-001  5.8089675e-001  7.3295659e-001  1.0230291e+000  1.0733030e+000  1.1568576e+000  1.0882920e+000  5.1388779e-001  7.8816626e-001  1.2297216e+000  4.6987691e-001  4.2696695e-001  4.5022828e-001  1.6808556e+000  1.2060337e+000  6.4009208e-001  1.0070623e+000  6.4352307e-001  1.2313978e+000  3.1910703e-001  8.9019807e-001
  1.4845359e-001  1.0094766e+000  1.4432258e+000  7.8047638e-001  8.1053922e-001  5.3736537e-001  1.6394029e+000  1.1944605e+000  4.8244016e-001  4.6898613e-001  1.5542412e+000  9.6356456e-001  5.7533989e-001  7.3242043e-001  9.8208023e-001  1.0603045e+000  1.1305562e+000  1.1191870e+000  5.0293359e-001  7.7483866e-001  1.1729593e+000  4.8562130e-001  4.0552986e-001  4.5000549e-001  1.6557866e+000  1.1924757e+000  6.5015754e-001  9.1469043e-001  5.7236054e-001  1.2224979e+000  3.1894984e-001  8.5444618e-001
  1.4774977e-001  9.4490013e-001  1.3625640e+000  8.1345046e-001  7.3429854e-001  5.2077671e-001  1.5834955e+000  1.1973506e+000  4.6240959e-001  4.4811569e-001  1.5708534e+000  9.4708960e-001  5.7694620e-001  7.3321966e-001  9.4312299e-001  1.0497341e+000  1.0968174e+000  1.1468637e+000  4.9635435e-001  7.6187175e-001  1.1175839e+000  5.0955810e-001  3.8382547e-001  4.4842813e-001  1.6250435e+000  1.1851904e+000  6.6134454e-001  8.2331199e-001  5.1068472e-001  1.2078777e+000  3.2138154e-001  8.1187002e-001
  1.4980450e-001  8.8318177e-001  1.2787892e+000  8.4476875e-001  6.6183150e-001  5.0880479e-001  1.5206579e+000  1.1925155e+000  4.4346361e-001  4.3012842e-001  1.5881447e+000  9.2375434e-001  5.8494209e-001  7.3426531e-001  9.0856795e-001  1.0395090e+000  1.0573982e+000  1.1698509e+000  4.9391375e-001  7.4947551e-001  1.0644786e+000  5.4151013e-001  3.6261362e-001  4.4531372e-001  1.5915907e+000  1.1837846e+000  6.7308927e-001  7.3557432e-001  4.5835089e-001  1.1904067e+000  3.2590441e-001  7.6327868e-001
  1.5448863e-001  8.2461541e-001  1.1934323e+000  8.7390782e-001  5.9387704e-001  5.0079142e-001  1.4521784e+000  1.1795580e+000  4.2559209e-001  4.1456778e-001  1.6057329e+000  8.9381960e-001  5.9812978e-001  7.3409685e-001  8.8036654e-001  1.0266869e+000  1.0129962e+000  1.1863734e+000  4.9529746e-001  7.3768266e-001  1.0142419e+000  5.8103764e-001  3.4232594e-001  4.4046967e-001  1.5584269e+000  1.1869430e+000  6.8445333e-001  6.5406274e-001  4.1448647e-001  1.1727792e+000  3.3195864e-001  7.1082529e-001
  1.6146855e-001  7.6879578e-001  1.1080988e+000  9.0045884e-001  5.3040676e-001  4.9689449e-001  1.3788604e+000  1.1603484e+000  4.0905969e-001  4.0153470e-001  1.6229797e+000  8.5774343e-001  6.1510196e-001  7.3077541e-001  8.5980360e-001  1.0077167e+000  9.6431818e-001  1.1942003e+000  5.0005359e-001  7.2624921e-001  9.6744378e-001  6.2649236e-001  3.2320100e-001  4.3437814e-001  1.5280616e+000  1.1922051e+000  6.9445538e-001  5.8078782e-001  3.7820278e-001  1.1566483e+000  3.3893628e-001  6.5633948e-001
  1.7071996e-001  7.1574851e-001  1.0239707e+000  9.2390803e-001  4.7225878e-001  4.9658458e-001  1.3024569e+000  1.1354814e+000  3.9400101e-001  3.9056455e-001  1.6390588e+000  8.1602178e-001  6.3450660e-001  7.2164742e-001  8.4752783e-001  9.7969887e-001  9.1366258e-001  1.1900550e+000  5.0745397e-001  7.1467276e-001  9.2491624e-001  6.7643448e-001  3.0539833e-001  4.2758034e-001  1.5027449e+000  1.1962968e+000  7.0168633e-001  5.1687108e-001  3.4865952e-001  1.1428412e+000  3.4606371e-001  6.0153760e-001
  1.8174483e-001  6.6491750e-001  9.4159171e-001  9.4334238e-001  4.1921060e-001  4.9909615e-001  1.2248089e+000  1.1070284e+000  3.8041382e-001  3.8197705e-001  1.6524185e+000  7.6908996e-001  6.5514945e-001  7.0595161e-001  8.4381616e-001  9.4188235e-001  8.6451232e-001  1.1741163e+000  5.1653435e-001  7.0223147e-001  8.8671939e-001  7.2918532e-001  2.8903756e-001  4.2073620e-001  1.4829607e+000  1.1955391e+000  7.0518787e-001  4.6264243e-001  3.2495847e-001  1.1313345e+000  3.5239945e-001  5.4837278e-001
  1.9453055e-001  6.1621460e-001  8.6195962e-001  9.5956387e-001  3.7190673e-001  5.0418448e-001  1.1482874e+000  1.0759931e+000  3.6856091e-001  3.7523224e-001  1.6614943e+000  7.1771201e-001  6.7606267e-001  6.8420550e-001  8.4878561e-001  8.9569360e-001  8.2034737e-001  1.1474435e+000  5.2598187e-001  6.8821457e-001  8.5305963e-001  7.8240298e-001  2.7420202e-001  4.1446916e-001  1.4687447e+000  1.1860835e+000  7.0510349e-001  4.1794759e-001  3.0614595e-001  1.1210402e+000  3.5730518e-001  4.9830630e-001
  2.0852803e-001  5.6956561e-001  7.8514171e-001  9.7333177e-001  3.2997035e-001  5.1099185e-001  1.0751433e+000  1.0434399e+000  3.5809790e-001  3.7044161e-001  1.6635252e+000  6.6337679e-001  6.9632085e-001  6.5787970e-001  8.6123673e-001  8.4419873e-001  7.8381028e-001  1.1118843e+000  5.3438814e-001  6.7211512e-001  8.2394942e-001  8.3338499e-001  2.6106325e-001  4.0913020e-001  1.4596251e+000  1.1651943e+000  7.0216621e-001  3.8250414e-001  2.9132304e-001  1.1105149e+000  3.6039648e-001  4.5250658e-001
  2.2370784e-001  5.2526566e-001  7.1177011e-001  9.8584130e-001  2.9393978e-001  5.1883568e-001  1.0068523e+000  1.0099673e+000  3.4891378e-001  3.6698284e-001  1.6568376e+000  6.0785542e-001  7.1482567e-001  6.2865023e-001  8.7993010e-001  7.9009242e-001  7.5617762e-001  1.0694351e+000  5.4055240e-001  6.5388970e-001  7.9908887e-001  8.7919975e-001  2.4977439e-001  4.0494464e-001  1.4545566e+000  1.1318898e+000  6.9748637e-001  3.5582948e-001  2.7964874e-001  1.0981788e+000  3.6131085e-001  4.1207345e-001
  2.3970203e-001  4.8342293e-001  6.4181022e-001  9.9815773e-001  2.6326244e-001  5.2718345e-001  9.4529848e-001  9.7559868e-001  3.4077812e-001  3.6454177e-001  1.6376277e+000  5.5263132e-001  7.3027224e-001  5.9848966e-001  9.0331581e-001  7.3565934e-001  7.3810372e-001  1.0226424e+000  5.4366965e-001  6.3352994e-001  7.7736180e-001  9.1610523e-001  2.4062179e-001  4.0206730e-001  1.4518753e+000  1.0884885e+000  6.9198404e-001  3.3707539e-001  2.7042748e-001  1.0822906e+000  3.5970195e-001  3.7848190e-001
  2.5643025e-001  4.4410694e-001  5.7572173e-001  1.0110762e+000  2.3822637e-001  5.3538924e-001  8.9032328e-001  9.4045660e-001  3.3345858e-001  3.6250182e-001  1.6057975e+000  4.9901002e-001  7.4156697e-001  5.6893483e-001  9.2973984e-001  6.8248797e-001  7.3005864e-001  9.7363891e-001  5.4356199e-001  6.1110538e-001  7.5805180e-001  9.4020312e-001  2.3363192e-001  4.0048403e-001  1.4502666e+000  1.0374167e+000  6.8622203e-001  3.2491650e-001  2.6330468e-001  1.0606750e+000  3.5544525e-001  3.5194108e-001
  2.7366297e-001  4.0729800e-001  5.1355829e-001  1.0250291e+000  2.1809922e-001  5.4302839e-001  8.4244518e-001  9.0449526e-001  3.2694468e-001  3.6042525e-001  1.5591316e+000  4.4821513e-001  7.4859576e-001  5.4126069e-001  9.5728009e-001  6.3154386e-001  7.3234404e-001  9.2461692e-001  5.4052971e-001  5.8676049e-001  7.4108517e-001  9.4950615e-001  2.2888652e-001  4.0021351e-001  1.4483350e+000  9.8107252e-001  6.8078274e-001  3.1794774e-001  2.5845196e-001  1.0321740e+000  3.4885947e-001  3.3283568e-001
  2.9125668e-001  3.7287636e-001  4.5574111e-001  1.0399204e+000  2.0290401e-001  5.4957525e-001  8.0192641e-001  8.6780672e-001  3.2100585e-001  3.5790075e-001  1.5007946e+000  4.0123511e-001  7.5219331e-001  5.1666741e-001  9.8320111e-001  5.8356551e-001  7.4499568e-001  8.7771701e-001  5.3505134e-001  5.6091848e-001  7.2685561e-001  9.4349866e-001  2.2636367e-001  4.0138237e-001  1.4443398e+000  9.2180869e-001  6.7617887e-001  3.1472406e-001  2.5607962e-001  9.9624093e-001  3.4049900e-001  3.2146958e-001
  3.0895688e-001  3.4085434e-001  4.0279739e-001  1.0553593e+000  1.9182182e-001  5.5504427e-001  7.6787053e-001  8.3035170e-001  3.1554236e-001  3.5458319e-001  1.4306598e+000  3.5880467e-001  7.5324493e-001  4.9607428e-001  1.0044915e+000  5.3926589e-001  7.6744394e-001  8.3435864e-001  5.2764300e-001  5.3421729e-001  7.1563231e-001  9.2298308e-001  2.2603737e-001  4.0376112e-001  1.4370007e+000  8.6166467e-001  6.7284815e-001  3.1379099e-001  2.5628538e-001  9.5362346e-001  3.3081543e-001  3.1814208e-001
  3.2660310e-001  3.1106071e-001  3.5504907e-001  1.0704555e+000  1.8470958e-001  5.5937562e-001  7.4027665e-001  7.9202813e-001  3.1041417e-001  3.5010202e-001  1.3525093e+000  3.2139129e-001  7.5226451e-001  4.8002569e-001  1.0179545e+000  4.9908058e-001  7.9836294e-001  7.9563221e-001  5.1880959e-001  5.0727504e-001  7.0756860e-001  8.9103722e-001  2.2753380e-001  4.0716321e-001  1.4259814e+000  8.0240224e-001  6.7129209e-001  3.1339163e-001  2.5900969e-001  9.0609348e-001  3.2005531e-001  3.2215424e-001
  3.4421000e-001  2.8361162e-001  3.1315052e-001  1.0841413e+000  1.8084309e-001  5.6242044e-001  7.1805372e-001  7.5298516e-001  3.0541085e-001  3.4432466e-001  1.2669613e+000  2.8909976e-001  7.4918462e-001  4.6904769e-001  1.0204500e+000  4.6327752e-001  8.3547812e-001  7.6268761e-001  5.0906338e-001  4.8061216e-001  7.0267805e-001  8.5060651e-001  2.3050491e-001  4.1135365e-001  1.4115941e+000  7.4577886e-001  6.7190307e-001  3.1162913e-001  2.6408422e-001  8.5624119e-001  3.0838640e-001  3.3319227e-001
  3.6189394e-001  2.5827159e-001  2.7685857e-001  1.0947575e+000  1.8008424e-001  5.6438985e-001  6.9983699e-001  7.1327614e-001  3.0042580e-001  3.3716113e-001  1.1773790e+000  2.6218482e-001  7.4336158e-001  4.6358446e-001  1.0100278e+000  4.3189745e-001  8.7545612e-001  7.3592827e-001  4.9868683e-001  4.5484363e-001  7.0039610e-001  8.0400042e-001  2.3461545e-001  4.1599506e-001  1.3948977e+000  6.9378892e-001  6.7501868e-001  3.0722376e-001  2.7135282e-001  8.0654896e-001  2.9597333e-001  3.5102154e-001
  3.7992401e-001  2.3512448e-001  2.4683213e-001  1.1013820e+000  1.8187076e-001  5.6526181e-001  6.8458278e-001  6.7325414e-001  2.9556375e-001  3.2890038e-001  1.0850931e+000  2.4097657e-001  7.3368056e-001  4.6391610e-001  9.8606688e-001  4.0486835e-001  9.1410344e-001  7.1543935e-001  4.8780846e-001  4.3073019e-001  6.9997122e-001  7.5310551e-001  2.3954405e-001  4.2078719e-001  1.3768868e+000  6.4835210e-001  6.8101975e-001  2.9990035e-001  2.8056927e-001  7.5922624e-001  2.8306440e-001  3.7516085e-001
  3.9861278e-001  2.1383242e-001  2.2230797e-001  1.1028573e+000  1.8611495e-001  5.6501807e-001  6.7044623e-001  6.3327385e-001  2.9104525e-001  3.1970880e-001  9.9235358e-001  2.2568140e-001  7.1877257e-001  4.6958836e-001  9.5069615e-001  3.8210790e-001  9.4723117e-001  7.0127761e-001  4.7665388e-001  4.0908071e-001  7.0059065e-001  6.9990463e-001  2.4499159e-001  4.2532349e-001  1.3582628e+000  6.1110432e-001  6.9007812e-001  2.8987737e-001  2.9129650e-001  7.1625283e-001  2.6991745e-001  4.0468070e-001
  4.1861381e-001  1.9454892e-001  2.0400401e-001  1.0988978e+000  1.9245863e-001  5.6389176e-001  6.5611700e-001  5.9381384e-001  2.8718668e-001  3.1006287e-001  9.0086657e-001  2.1632373e-001  6.9748252e-001  4.8028066e-001  9.0623019e-001  3.6365289e-001  9.7192139e-001  6.9367166e-001  4.6552227e-001  3.9063376e-001  7.0128014e-001  6.4591533e-001  2.5073609e-001  4.2890967e-001  1.3395532e+000  5.8374949e-001  7.0210652e-001  2.7746256e-001  3.0299753e-001  6.7957926e-001  2.5662937e-001  4.3908908e-001
  4.4008488e-001  1.7698051e-001  1.9073336e-001  1.0899894e+000  2.0090206e-001  5.6195822e-001  6.4036619e-001  5.5524831e-001  2.8411016e-001  3.0033494e-001  8.1173245e-001  2.1275653e-001  6.6935730e-001  4.9543018e-001  8.5501821e-001  3.4950718e-001  9.8680601e-001  6.9154435e-001  4.5460757e-001  3.7615247e-001  7.0095520e-001  5.9254308e-001  2.5664817e-001  4.3076376e-001  1.3208897e+000  5.6646948e-001  7.1711068e-001  2.6318459e-001  3.1494987e-001  6.4987718e-001  2.4318329e-001  4.7807897e-001
  4.6363840e-001  1.6140927e-001  1.8322835e-001  1.0755822e+000  2.1120520e-001  5.5946231e-001  6.2286718e-001  5.1823738e-001  2.8203267e-001  2.9089458e-001  7.2631986e-001  2.1471316e-001  6.3464650e-001  5.1433063e-001  7.9969843e-001  3.3948107e-001  9.9096993e-001  6.9420906e-001  4.4386259e-001  3.6656151e-001  6.9887411e-001  5.4137846e-001  2.6263940e-001  4.3003014e-001  1.3022757e+000  5.5962883e-001  7.3488003e-001  2.4782814e-001  3.2621575e-001  6.2745441e-001  2.2973455e-001  5.2084154e-001
  4.8928228e-001  1.4754572e-001  1.8009330e-001  1.0557357e+000  2.2341029e-001  5.5676272e-001  6.0342842e-001  4.8291931e-001  2.8098436e-001  2.8216459e-001  6.4498458e-001  2.2189794e-001  5.9442339e-001  5.3537601e-001  7.4294619e-001  3.3336307e-001  9.8382184e-001  7.0122942e-001  4.3312453e-001  3.6218121e-001  6.9462993e-001  4.9346537e-001  2.6852434e-001  4.2539400e-001  1.2838656e+000  5.6346079e-001  7.5433798e-001  2.3221842e-001  3.3586763e-001  6.1232026e-001  2.1668079e-001  5.6620274e-001
  5.1760832e-001  1.3575361e-001  1.8171180e-001  1.0300074e+000  2.3735718e-001  5.5414028e-001  5.8194744e-001  4.4983307e-001  2.8103656e-001  2.7436080e-001  5.6884948e-001  2.3399803e-001  5.5057606e-001  5.5701913e-001  6.8744397e-001  3.3101293e-001  9.6514999e-001  7.1223375e-001  4.2241587e-001  3.6325777e-001  6.8820060e-001  4.4949781e-001  2.7401672e-001  4.1659968e-001  1.2658032e+000  5.7796736e-001  7.7427789e-001  2.1717180e-001  3.4346548e-001  6.0419538e-001  2.0457785e-001  6.1280533e-001
  5.4886928e-001  1.2569373e-001  1.8689114e-001  9.9700908e-001  2.5310988e-001  5.5182275e-001  5.5863935e-001  4.1925745e-001  2.8240076e-001  2.6786303e-001  4.9800933e-001  2.5062676e-001  5.0504853e-001  5.7750524e-001  6.3525931e-001  3.3222421e-001  9.3471720e-001  7.2631587e-001  4.1196079e-001  3.6976593e-001  6.8031581e-001  4.0997775e-001  2.7880092e-001  4.0370121e-001  1.2479675e+000  6.0313927e-001  7.9269761e-001  2.0357546e-001  3.4917118e-001  6.0230716e-001  1.9397963e-001  6.5871176e-001
  5.8372150e-001  1.1781442e-001  1.9558732e-001  9.5694587e-001  2.7048484e-001  5.4991723e-001  5.3362580e-001  3.9142554e-001  2.8494593e-001  2.6277408e-001  4.3326524e-001  2.7109436e-001  4.5940594e-001  5.9454259e-001  5.8797676e-001  3.3653763e-001  8.9351557e-001  7.4319376e-001  4.0192696e-001  3.8173033e-001  6.7161826e-001  3.7570359e-001  2.8269273e-001  3.8701705e-001  1.2298021e+000  6.3795975e-001  8.0725384e-001  1.9224267e-001  3.5350005e-001  6.0495722e-001  1.8536654e-001  7.0139887e-001
  6.2268239e-001  1.1172097e-001  2.0683298e-001  9.0928970e-001  2.8941709e-001  5.4855188e-001  5.0754349e-001  3.6672096e-001  2.8875110e-001  2.5942776e-001  3.7448758e-001  2.9482631e-001  4.1485273e-001  6.0581682e-001  5.4684522e-001  3.4346770e-001  8.4463535e-001  7.6259615e-001  3.9232270e-001  3.9892006e-001  6.6266058e-001  3.4663613e-001  2.8572675e-001  3.6751045e-001  1.2100699e+000  6.8082692e-001  8.1547604e-001  1.8383879e-001  3.5689933e-001  6.1056174e-001  1.7913726e-001  7.3813101e-001
  6.6598561e-001  1.0782667e-001  2.2020983e-001  8.5498001e-001  3.0956449e-001  5.4769218e-001  4.8104555e-001  3.4473217e-001  2.9374025e-001  2.5809902e-001  3.2197086e-001  3.2133053e-001  3.7236473e-001  6.0957590e-001  5.1268623e-001  3.5280511e-001  7.9206499e-001  7.8407506e-001  3.8302742e-001  4.2085392e-001  6.5398429e-001  3.2305251e-001  2.8837811e-001  3.4601226e-001  1.1867966e+000  7.2985955e-001  8.1431671e-001  1.7892011e-001  3.5982304e-001  6.1727612e-001  1.7562535e-001  7.6591831e-001
  7.1403646e-001  1.0569065e-001  2.3487111e-001  7.9633317e-001  3.3067168e-001  5.4726665e-001  4.5488192e-001  3.2564509e-001  2.9988923e-001  2.5910529e-001  2.7546473e-001  3.5002618e-001  3.3279591e-001  6.0506442e-001  4.8605961e-001  3.6449829e-001  7.3935224e-001  8.0735243e-001  3.7390980e-001  4.4703728e-001  6.4596683e-001  3.0514703e-001  2.9114968e-001  3.2320802e-001  1.1588837e+000  7.8263842e-001  8.0265311e-001  1.7793237e-001  3.6278136e-001  6.2268938e-001  1.7509411e-001  7.8150562e-001
  7.6630928e-001  1.0560659e-001  2.5018620e-001  7.3499501e-001  3.5237905e-001  5.4721899e-001  4.2985667e-001  3.0888081e-001  3.0747610e-001  2.6283757e-001  2.3486544e-001  3.8024948e-001  2.9686685e-001  5.9240609e-001  4.6716803e-001  3.7846984e-001  6.8895884e-001  8.3257852e-001  3.6500372e-001  4.7690812e-001  6.3875533e-001  2.9324904e-001  2.9444726e-001  2.9990714e-001  1.1260056e+000  8.3608353e-001  7.8130354e-001  1.8104708e-001  3.6615622e-001  6.2394436e-001  1.7774187e-001  7.8516157e-001
  8.2305295e-001  1.0718811e-001  2.6547564e-001  6.7307054e-001  3.7443667e-001  5.4734785e-001  4.0664022e-001  2.9432287e-001  3.1641301e-001  2.6941273e-001  1.9990736e-001  4.1146445e-001  2.6504428e-001  5.7292560e-001  4.5568306e-001  3.9445757e-001  6.4239403e-001  8.6008198e-001  3.5668455e-001  5.0990514e-001  6.3228172e-001  2.8667145e-001  2.9865553e-001  2.7678141e-001  1.0887053e+000  8.8623605e-001  7.5139957e-001  1.8830491e-001  3.7004853e-001  6.1895716e-001  1.8359599e-001  7.7825671e-001
  8.8328939e-001  1.1064179e-001  2.8026473e-001  6.1205322e-001  3.9654487e-001  5.4751736e-001  3.8612510e-001  2.8178749e-001  3.2683377e-001  2.7936296e-001  1.7016728e-001  4.4331092e-001  2.3769367e-001  5.4821403e-001  4.5151089e-001  4.1200261e-001  6.0060630e-001  8.9015023e-001  3.4966081e-001  5.4477664e-001  6.2618463e-001  2.8501966e-001  3.0413143e-001  2.5426397e-001  1.0488001e+000  9.2969722e-001  7.1468324e-001  1.9954542e-001  3.7438445e-001  6.0693525e-001  1.9273363e-001  7.6246274e-001
  9.4732565e-001  1.1564158e-001  2.9421912e-001  5.5367431e-001  4.1847976e-001  5.4761433e-001  3.6843196e-001  2.7102324e-001  3.3862232e-001  2.9255450e-001  1.4551859e-001  4.7557860e-001  2.1525333e-001  5.1967595e-001  4.5462668e-001  4.3054867e-001  5.6414622e-001  9.2279899e-001  3.4494868e-001  5.8008760e-001  6.2004561e-001  2.8782721e-001  3.1122806e-001  2.3277632e-001  1.0079857e+000  9.6335062e-001  6.7352851e-001  2.1438735e-001  3.7928696e-001  5.8837164e-001  2.0512647e-001  7.3903679e-001
  1.0140957e+000  1.2229252e-001  3.0731473e-001  4.9862210e-001  4.4012330e-001  5.4758401e-001  3.5399863e-001  2.6235784e-001  3.5153881e-001  3.0975359e-001  1.2548781e-001  5.0820529e-001  1.9805199e-001  4.8857411e-001  4.6486407e-001  4.4951783e-001  5.3298506e-001  9.5775433e-001  3.4332860e-001  6.1412277e-001  6.1363443e-001  2.9448431e-001  3.2032460e-001  2.1240509e-001  9.6740127e-001  9.8391638e-001  6.2958369e-001  2.3231125e-001  3.8511294e-001  5.6423868e-001  2.2058797e-001  7.1050377e-001
  1.0834065e+000  1.3031431e-001  3.1948540e-001  4.4767803e-001  4.6152569e-001  5.4731943e-001  3.4315613e-001  2.5553084e-001  3.6569392e-001  3.3049420e-001  1.1021662e-001  5.4148658e-001  1.8628989e-001  4.5613136e-001  4.8209404e-001  4.6831337e-001  5.0686922e-001  9.9420840e-001  3.4545932e-001  6.4520310e-001  6.0683165e-001  3.0387592e-001  3.3192561e-001  1.9325906e-001  9.2790545e-001  9.8846976e-001  5.8439842e-001  2.5266827e-001  3.9225427e-001  5.3612567e-001  2.3877593e-001  6.7839934e-001
  1.1539469e+000  1.3973909e-001  3.3085402e-001  4.0158064e-001  4.8292679e-001  5.4659831e-001  3.3566845e-001  2.5076294e-001  3.8102307e-001  3.5564130e-001  9.9248795e-002  5.7611465e-001  1.7998894e-001  4.2358997e-001  5.0572839e-001  4.8631075e-001  4.8508825e-001  1.0306573e+000  3.5174226e-001  6.7215274e-001  5.9953535e-001  3.1518731e-001  3.4653471e-001  1.7554124e-001  8.9009214e-001  9.7526814e-001  5.3954782e-001  2.7483210e-001  4.0129985e-001  5.0520952e-001  2.5917993e-001  6.4397531e-001
  1.2244045e+000  1.5034362e-001  3.4152977e-001  3.6011433e-001  5.0456812e-001  5.4536243e-001  3.3187561e-001  2.4803137e-001  3.9782337e-001  3.8438202e-001  9.2995887e-002  6.1293746e-001  1.7899809e-001  3.9196653e-001  5.3528948e-001  5.0304161e-001  4.6662258e-001  1.0657926e+000  3.6228751e-001  6.9522818e-001  5.9165789e-001  3.2765145e-001  3.6432777e-001  1.5928287e-001  8.5438552e-001  9.4654572e-001  4.9610892e-001  2.9838947e-001  4.1306338e-001  4.7260148e-001  2.8108229e-001  6.0839792e-001
  1.2929308e+000  1.6207258e-001  3.5187603e-001  3.2376118e-001  5.2667219e-001  5.4355084e-001  3.3170477e-001  2.4744222e-001  4.1641564e-001  4.1722810e-001  9.0928326e-002  6.5264968e-001  1.8317386e-001  3.6209373e-001  5.7011930e-001  5.1830749e-001  4.5057339e-001  1.0984934e+000  3.7694075e-001  7.1519798e-001  5.8314392e-001  3.4036890e-001  3.8541610e-001  1.4444718e-001  8.2105840e-001  9.0563231e-001  4.5515722e-001  3.2325631e-001  4.2833545e-001  4.3929193e-001  3.0369768e-001  5.7281424e-001
  1.3576517e+000  1.7476640e-001  3.6217466e-001  2.9233893e-001  5.4951009e-001  5.4118942e-001  3.3489817e-001  2.4951949e-001  4.3675808e-001  4.5341631e-001  9.3573786e-002  6.9600306e-001  1.9245471e-001  3.3477959e-001  6.0939630e-001  5.3216385e-001  4.3625355e-001  1.1274934e+000  3.9557875e-001  7.3282131e-001  5.7385658e-001  3.5249482e-001  4.0983610e-001  1.3108532e-001  7.9029185e-001  8.5566908e-001  4.1718324e-001  3.4969721e-001  4.4787097e-001  4.0647320e-001  3.2669382e-001  5.3801900e-001
  1.4170345e+000  1.8841509e-001  3.7277665e-001  2.6545834e-001  5.7325322e-001  5.3844829e-001  3.4165562e-001  2.5429183e-001  4.5902911e-001  4.9301332e-001  1.0023652e-001  7.4382729e-001  2.0676615e-001  3.1025846e-001  6.5235551e-001  5.4489524e-001  4.2277473e-001  1.1526241e+000  4.1787899e-001  7.4843917e-001  5.6387977e-001  3.6334681e-001  4.3766769e-001  1.1928624e-001  7.6137827e-001  7.9973511e-001  3.8243308e-001  3.7812027e-001  4.7252342e-001  3.7527168e-001  3.5047015e-001  5.0459663e-001
  1.4706882e+000  2.0296321e-001  3.8419547e-001  2.4360110e-001  5.9794254e-001  5.3533727e-001  3.5136317e-001  2.6251950e-001  4.8284624e-001  5.3540487e-001  1.1151998e-001  7.9664431e-001  2.2599534e-001  2.8874547e-001  6.9835256e-001  5.5718205e-001  4.0898346e-001  1.1742041e+000  4.4372143e-001  7.6215089e-001  5.5344089e-001  3.7228123e-001  4.6851591e-001  1.0898391e-001  7.3335507e-001  7.4067526e-001  3.5125895e-001  4.0870327e-001  5.0300203e-001  3.4661285e-001  3.7551906e-001  4.7288234e-001
  1.5181560e+000  2.1837156e-001  3.9661298e-001  2.2624974e-001  6.2341002e-001  5.3179557e-001  3.6372960e-001  2.7408501e-001  5.0810467e-001  5.8038581e-001  1.2658030e-001  8.5443736e-001  2.5006232e-001  2.7036830e-001  7.4673624e-001  5.6996817e-001  3.9437112e-001  1.1927784e+000  4.7279875e-001  7.7422750e-001  5.4293005e-001  3.7889700e-001  5.0199914e-001  1.0018866e-001  7.0493408e-001  6.8101540e-001  3.2371252e-001  4.4117430e-001  5.3952498e-001  3.2120273e-001  4.0214940e-001  4.4286064e-001
  1.5605710e+000  2.3455332e-001  4.1042284e-001  2.1348182e-001  6.4942002e-001  5.2781085e-001  3.7874835e-001  2.8924935e-001  5.3482199e-001  6.2744693e-001  1.4607533e-001  9.1691691e-001  2.7911572e-001  2.5531343e-001  7.9726650e-001  5.8420731e-001  3.7950133e-001  1.2086217e+000  5.0458396e-001  7.8533227e-001  5.3295613e-001  3.8308621e-001  5.3752304e-001  9.3071118e-002  6.7447458e-001  6.2280007e-001  2.9949010e-001  4.7469091e-001  5.8221802e-001  2.9973475e-001  4.3072016e-001  4.1451517e-001
  1.5977323e+000  2.5135433e-001  4.2550738e-001  2.0571308e-001  6.7555543e-001  5.2340208e-001  3.9587067e-001  3.0815637e-001  5.6300615e-001  6.7607120e-001  1.6907471e-001  9.8357067e-001  3.1365151e-001  2.4320434e-001  8.4944514e-001  6.0072437e-001  3.6523582e-001  1.2221918e+000  5.3852444e-001  7.9655834e-001  5.2400978e-001  3.8488609e-001  5.7436192e-001  8.7477001e-002  6.4149129e-001  5.6772696e-001  2.7853949e-001  5.0785980e-001  6.3083827e-001  2.8219732e-001  4.6183353e-001  3.8787631e-001
  1.6305675e+000  2.6863996e-001  4.4195919e-001  2.0237117e-001  7.0133603e-001  5.1882742e-001  4.1490612e-001  3.3045503e-001  5.9321995e-001  7.2561147e-001  1.9626936e-001  1.0533936e+000  3.5441802e-001  2.3371000e-001  9.0258042e-001  6.1996360e-001  3.5237838e-001  1.2334745e+000  5.7411567e-001  8.0909946e-001  5.1644198e-001  3.8463822e-001  6.1148107e-001  8.3405045e-002  6.0647141e-001  5.1719373e-001  2.6100367e-001  5.3898786e-001  6.8480648e-001  2.6858273e-001  4.9612618e-001  3.6323498e-001
  1.6581362e+000  2.8624980e-001  4.5963449e-001  2.0367620e-001  7.2626714e-001  5.1438148e-001  4.3554716e-001  3.5661328e-001  6.2563595e-001  7.7528331e-001  2.2690701e-001  1.1251116e+000  4.0199937e-001  2.2658640e-001  9.5585828e-001  6.4196499e-001  3.4189510e-001  1.2420390e+000  6.1088350e-001  8.2363069e-001  5.1052979e-001  3.8327767e-001  6.4786215e-001  8.0955297e-002  5.7022553e-001  4.7214482e-001  2.4653044e-001  5.6649851e-001  7.4331335e-001  2.5878186e-001  5.3406248e-001  3.4116544e-001
  1.6812433e+000  3.0406057e-001  4.7866368e-001  2.0949627e-001  7.4996516e-001  5.1039677e-001  4.5748736e-001  3.8595633e-001  6.6037982e-001  8.2408776e-001  2.6171838e-001  1.1975209e+000  4.5672413e-001  2.2181147e-001  1.0080180e+000  6.6624844e-001  3.3477199e-001  1.2475219e+000  6.4818336e-001  8.4038530e-001  5.0654560e-001  3.8181241e-001  6.8274729e-001  8.0078103e-002  5.3344559e-001  4.3336753e-001  2.3507050e-001  5.8940010e-001  8.0516376e-001  2.5270047e-001  5.7553142e-001  3.2243939e-001
  1.6989898e+000  3.2186723e-001  4.9910263e-001  2.1937232e-001  7.7225514e-001  5.0715428e-001  4.8087385e-001  4.1875462e-001  6.9768392e-001  8.7125070e-001  3.0009164e-001  1.2693345e+000  5.1874789e-001  2.1947303e-001  1.0573651e+000  6.9170864e-001  3.3172473e-001  1.2499507e+000  6.8511138e-001  8.5913621e-001  5.0467296e-001  3.8118377e-001  7.1584869e-001  8.0742591e-002  4.9668003e-001  4.0081512e-001  2.2684857e-001  6.0741371e-001  8.6860888e-001  2.5031338e-001  6.2027684e-001  3.0812333e-001
  1.7118460e+000  3.3944031e-001  5.2111266e-001  2.3359596e-001  7.9303440e-001  5.0493323e-001  5.0570502e-001  4.5472421e-001  7.3717865e-001  9.1559467e-001  3.4254674e-001  1.3391384e+000  5.8801130e-001  2.1973275e-001  1.1019064e+000  7.1675987e-001  3.3309623e-001  1.2492776e+000  7.2097218e-001  8.7922485e-001  5.0505754e-001  3.8246665e-001  7.4729358e-001  8.3009507e-002  4.6038637e-001  3.7451457e-001  2.2155045e-001  6.2090050e-001  9.3129969e-001  2.5146954e-001  6.6781083e-001  2.9894552e-001
  1.7195817e+000  3.5657552e-001  5.4495358e-001  2.5170812e-001  8.1218458e-001  5.0432625e-001  5.3192626e-001  4.9357404e-001  7.7894197e-001  9.5717813e-001  3.8846631e-001  1.4061061e+000  6.6421243e-001  2.2276812e-001  1.1398611e+000  7.3996891e-001  3.3898181e-001  1.2452131e+000  7.5535100e-001  8.9951669e-001  5.0763938e-001  3.8651313e-001  7.7754889e-001  8.6895911e-002  4.2495169e-001  3.5447261e-001  2.1906305e-001  6.3051189e-001  9.9123237e-001  2.5620849e-001  7.1735660e-001  2.9529252e-001
  1.7223220e+000  3.7297039e-001  5.7084911e-001  2.7365397e-001  8.2946584e-001  5.0548977e-001  5.5983586e-001  5.3532832e-001  8.2246510e-001  9.9545958e-001  4.3809205e-001  1.4702171e+000  7.4691171e-001  2.2874819e-001  1.1702555e+000  7.6064953e-001  3.4928472e-001  1.2373577e+000  7.8809274e-001  9.1855405e-001  5.1204796e-001  3.9399689e-001  8.0729822e-001  9.2246530e-002  3.9067178e-001  3.4063982e-001  2.1943773e-001  6.3712918e-001  1.0473181e+000  2.6449176e-001  7.6795942e-001  2.9749888e-001
  1.7193328e+000  3.8857968e-001  5.9925169e-001  3.0013869e-001  8.4460608e-001  5.0869819e-001  5.8928220e-001  5.7939306e-001  8.6713704e-001  1.0313377e+000  4.9083295e-001  1.5316271e+000  8.3532494e-001  2.3769534e-001  1.1931967e+000  7.7902753e-001  3.6367160e-001  1.2254218e+000  8.1963917e-001  9.3485316e-001  5.1812179e-001  4.0553482e-001  8.3712799e-001  9.9030619e-002  3.5793335e-001  3.3295662e-001  2.2241017e-001  6.4179513e-001  1.0992037e+000  2.7632674e-001  8.1862426e-001  3.0610891e-001
  1.7089315e+000  4.0324820e-001  6.3009926e-001  3.3095125e-001  8.5723885e-001  5.1475182e-001  6.2011363e-001  6.2578854e-001  9.1247936e-001  1.0646522e+000  5.4669766e-001  1.5901976e+000  9.2818657e-001  2.4931388e-001  1.2099786e+000  7.9577261e-001  3.8151910e-001  1.2091272e+000  8.5048602e-001  9.4710033e-001  5.2598696e-001  4.2196445e-001  8.6773007e-001  1.0737062e-001  3.2721221e-001  3.3100419e-001  2.2763694e-001  6.4577882e-001  1.1467566e+000  2.9136879e-001  8.6831927e-001  3.2076457e-001
  1.6897671e+000  4.1712519e-001  6.6359341e-001  3.6663302e-001  8.6714076e-001  5.2335363e-001  6.5222804e-001  6.7401064e-001  9.5803043e-001  1.0957854e+000  6.0509106e-001  1.6455859e+000  1.0238528e+000  2.6343565e-001  1.2221708e+000  8.1133914e-001  4.0183311e-001  1.1875772e+000  8.8095765e-001  9.5447933e-001  5.3585084e-001  4.4344552e-001  8.9986600e-001  1.1708519e-001  2.9905236e-001  3.3398388e-001  2.3494512e-001  6.5054530e-001  1.1900313e+000  3.0936037e-001  9.1584826e-001  3.4109541e-001
  1.6589707e+000  4.3007471e-001  6.9917091e-001  4.0761208e-001  8.7430553e-001  5.3461417e-001  6.8522701e-001  7.2377574e-001  1.0035911e+000  1.1247127e+000  6.6557785e-001  1.6975425e+000  1.1202483e+000  2.8005284e-001  1.2311842e+000  8.2551230e-001  4.2317115e-001  1.1599085e+000  9.1140124e-001  9.5748382e-001  5.4741975e-001  4.7024283e-001  9.3398392e-001  1.2814713e-001  2.7350221e-001  3.4126781e-001  2.4425097e-001  6.5735231e-001  1.2291248e+000  3.3005831e-001  9.5992640e-001  3.6668691e-001
  1.6170492e+000  4.4226759e-001  7.3657670e-001  4.5364856e-001  8.7880652e-001  5.4879809e-001  7.1886463e-001  7.7439254e-001  1.0490736e+000  1.1519116e+000  7.2729614e-001  1.7454328e+000  1.2147679e+000  2.9950714e-001  1.2378290e+000  8.3752508e-001  4.4353264e-001  1.1256384e+000  9.4212250e-001  9.5754748e-001  5.6025769e-001  5.0265018e-001  9.7004824e-001  1.4061193e-001  2.5055003e-001  3.5235433e-001  2.5542701e-001  6.6735914e-001  1.2635771e+000  3.5314293e-001  9.9903471e-001  3.9728222e-001
  1.5624121e+000  4.5351728e-001  7.7477713e-001  5.0548689e-001  8.8065201e-001  5.6526177e-001  7.5260053e-001  8.2491937e-001  1.0942888e+000  1.1774813e+000  7.8954031e-001  1.7874154e+000  1.3045899e+000  3.2186272e-001  1.2421833e+000  8.4695882e-001  4.6048228e-001  1.0852303e+000  9.7318402e-001  9.5592800e-001  5.7409015e-001  5.4142413e-001  1.0078520e+000  1.5436298e-001  2.3019702e-001  3.6702634e-001  2.6857398e-001  6.8150876e-001  1.2931873e+000  3.7827812e-001  1.0315376e+000  4.3179140e-001
  1.4985968e+000  4.6401761e-001  8.1280188e-001  5.6308839e-001  8.7985754e-001  5.8387662e-001  7.8582425e-001  8.7418711e-001  1.1387234e+000  1.2013275e+000  8.5158968e-001  1.8206166e+000  1.3868220e+000  3.4729309e-001  1.2434002e+000  8.5416845e-001  4.7180339e-001  1.0394757e+000  1.0043808e+000  9.5340479e-001  5.8924920e-001  5.8606235e-001  1.0473977e+000  1.6926021e-001  2.1268083e-001  3.8544104e-001  2.8404368e-001  7.0015256e-001  1.3173545e+000  4.0502248e-001  1.0558263e+000  4.6940866e-001
  1.4265160e+000  4.7376136e-001  8.4969208e-001  6.2632948e-001  8.7645259e-001  6.0447446e-001  8.1794850e-001  9.2160879e-001  1.1821767e+000  1.2231113e+000  9.1285812e-001  1.8425209e+000  1.4590802e+000  3.7585321e-001  1.2401187e+000  8.5985380e-001  4.7661820e-001  9.9007851e-001  1.0357945e+000  9.5071410e-001  6.0609837e-001  6.3618826e-001  1.0891997e+000  1.8522997e-001  1.9772102e-001  4.0729169e-001  3.0175694e-001  7.2305264e-001  1.3346231e+000  4.3314817e-001  1.0706570e+000  5.0921749e-001
  1.3497372e+000  4.8315812e-001  8.8396354e-001  6.9608124e-001  8.7055242e-001  6.2644007e-001  8.4834984e-001  9.6639048e-001  1.2245149e+000  1.2419850e+000  9.7276537e-001  1.8507887e+000  1.5205036e+000  4.0768425e-001  1.2303297e+000  8.6503462e-001  4.7547979e-001  9.3807105e-001  1.0676520e+000  9.4914747e-001  6.2506161e-001  6.9116713e-001  1.1337639e+000  2.0220926e-001  1.8519158e-001  4.3232356e-001  3.2188969e-001  7.4964414e-001  1.3424899e+000  4.6245182e-001  1.0755014e+000  5.5025726e-001
  1.2698868e+000  4.9248704e-001  9.1476390e-001  7.7142250e-001  8.6237664e-001  6.4939731e-001  8.7629637e-001  1.0081846e+000  1.2659020e+000  1.2571648e+000  1.0307861e+000  1.8432355e+000  1.5716695e+000  4.4255195e-001  1.2121007e+000  8.7048933e-001  4.6927904e-001  8.8414125e-001  1.1000604e+000  9.4998572e-001  6.4649811e-001  7.5007550e-001  1.1815088e+000  2.2008950e-001  1.7493845e-001  4.6008111e-001  3.4483707e-001  7.7939107e-001  1.3383182e+000  4.9283259e-001  1.0709633e+000  5.9157351e-001
  1.1893006e+000  5.0197155e-001  9.4029687e-001  8.5224789e-001  8.5210241e-001  6.7275956e-001  9.0039425e-001  1.0467757e+000  1.3066493e+000  1.2668161e+000  1.0857581e+000  1.8193483e+000  1.6139353e+000  4.8040774e-001  1.1841853e+000  8.7662075e-001  4.5868088e-001  8.2880707e-001  1.1331888e+000  9.5407765e-001  6.7065503e-001  8.1105861e-001  1.2318140e+000  2.3886099e-001  1.6680360e-001  4.9000109e-001  3.7071960e-001  8.1223706e-001  1.3209127e+000  5.2411747e-001  1.0579809e+000  6.3240672e-001
  1.1096234e+000  5.1179464e-001  9.5987293e-001  9.3837918e-001  8.3982849e-001  6.9597473e-001  9.2014480e-001  1.0812453e+000  1.3467531e+000  1.2703734e+000  1.1366269e+000  1.7807644e+000  1.6480937e+000  5.2115025e-001  1.1466742e+000  8.8409467e-001  4.4439730e-001  7.7293409e-001  1.1668098e+000  9.6178296e-001  6.9741135e-001  8.7250550e-001  1.2833253e+000  2.5864272e-001  1.6048330e-001  5.2163086e-001  3.9972930e-001  8.4856792e-001  1.2909276e+000  5.5610941e-001  1.0380928e+000  6.7193228e-001
  1.0322422e+000  5.2207600e-001  9.7199026e-001  1.0287923e+000  8.2557196e-001  7.1847938e-001  9.3481321e-001  1.1117099e+000  1.3860384e+000  1.2656567e+000  1.1813377e+000  1.7304699e+000  1.6740707e+000  5.6459608e-001  1.1015551e+000  8.9362107e-001  4.2745698e-001  7.1716650e-001  1.2004042e+000  9.7314146e-001  7.2684827e-001  9.3286892e-001  1.3339360e+000  2.7938576e-001  1.5596112e-001  5.5478881e-001  4.3237497e-001  8.8867059e-001  1.2499581e+000  5.8858817e-001  1.0126768e+000  7.0910539e-001
  9.5809214e-001  5.3325720e-001  9.7629230e-001  1.1232694e+000  8.0936153e-001  7.3967388e-001  9.4328222e-001  1.1374721e+000  1.4239257e+000  1.2540537e+000  1.2191786e+000  1.6724061e+000  1.6913586e+000  6.1011096e-001  1.0516343e+000  9.0547393e-001  4.0939389e-001  6.6190981e-001  1.2331837e+000  9.8730252e-001  7.5904228e-001  9.9078966e-001  1.3807545e+000  3.0111329e-001  1.5336352e-001  5.8951327e-001  4.6908218e-001  9.3190152e-001  1.1994221e+000  6.2123094e-001  9.8349669e-001  7.4311911e-001
  8.8804528e-001  5.4573134e-001  9.7168991e-001  1.2210240e+000  7.9107684e-001  7.5909729e-001  9.4626101e-001  1.1588903e+000  1.4595723e+000  1.2352430e+000  1.2482182e+000  1.6103879e+000  1.6987065e+000  6.5692796e-001  9.9931829e-001  9.1936917e-001  3.9184975e-001  6.0759279e-001  1.2640225e+000  1.0033456e+000  7.9366821e-001  1.0456948e+000  1.4211762e+000  3.2386177e-001  1.5278018e-001  6.2569022e-001  5.0984481e-001  9.7689130e-001  1.1401287e+000  6.5358265e-001  9.5244453e-001  7.7330976e-001
  8.2213472e-001  5.6038465e-001  9.5739765e-001  1.3212196e+000  7.7070628e-001  7.7602473e-001  9.4412089e-001  1.1758423e+000  1.4925123e+000  1.2119532e+000  1.2690929e+000  1.5470075e+000  1.6949960e+000  7.0408013e-001  9.4693330e-001  9.3441465e-001  3.7622710e-001  5.5503100e-001  1.2919567e+000  1.0200580e+000  8.2985021e-001  1.0969840e+000  1.4538023e+000  3.4742726e-001  1.5415933e-001  6.6299521e-001  5.5484623e-001  1.0220902e+000  1.0736458e+000  6.8526721e-001  9.2115465e-001  7.9922783e-001
  7.6116153e-001  5.7777409e-001  9.3345753e-001  1.4232889e+000  7.4844982e-001  7.9050364e-001  9.3806493e-001  1.1883184e+000  1.5211755e+000  1.1855592e+000  1.2806990e+000  1.4839885e+000  1.6794667e+000  7.5007852e-001  8.9641753e-001  9.4928263e-001  3.6368125e-001  5.0521464e-001  1.3165990e+000  1.0357590e+000  8.6647371e-001  1.1438798e+000  1.4777372e+000  3.7150382e-001  1.5751864e-001  7.0124343e-001  6.0432450e-001  1.0654518e+000  1.0023043e+000  7.1601067e-001  8.9099056e-001  8.2085697e-001
  7.0478847e-001  5.9897669e-001  9.0047572e-001  1.5258247e+000  7.2475775e-001  8.0273142e-001  9.2952815e-001  1.1969292e+000  1.5444918e+000  1.1582748e+000  1.2852030e+000  1.4234827e+000  1.6517404e+000  7.9267450e-001  8.4936914e-001  9.6261069e-001  3.5502447e-001  4.5923985e-001  1.3384442e+000  1.0484052e+000  9.0209538e-001  1.1853675e+000  1.4919865e+000  3.9587421e-001  1.6295308e-001  7.4035653e-001  6.5765484e-001  1.1040438e+000  9.2896788e-001  7.4551960e-001  8.6284230e-001  8.3860605e-001
  6.5416730e-001  6.2442577e-001  8.6051769e-001  1.6273285e+000  7.0019269e-001  8.1264564e-001  9.1928176e-001  1.2013832e+000  1.5613843e+000  1.1315960e+000  1.2822528e+000  1.3676794e+000  1.6121405e+000  8.2943586e-001  8.0688998e-001  9.7305721e-001  3.5078639e-001  4.1781067e-001  1.3579051e+000  1.0563474e+000  9.3523825e-001  1.2206158e+000  1.4945535e+000  4.2052935e-001  1.7035443e-001  7.7997086e-001  7.1454975e-001  1.1344982e+000  8.5634541e-001  7.7340554e-001  8.3724599e-001  8.5244814e-001
  6.0836217e-001  6.5479440e-001  8.1528860e-001  1.7255566e+000  6.7533955e-001  8.2104437e-001  9.0808841e-001  1.2027860e+000  1.5700101e+000  1.1068477e+000  1.2738535e+000  1.3180210e+000  1.5620635e+000  8.5778180e-001  7.6945135e-001  9.7948572e-001  3.5124188e-001  3.8138905e-001  1.3745457e+000  1.0588056e+000  9.6443212e-001  1.2480725e+000  1.4842705e+000  4.4562352e-001  1.7957944e-001  8.1975928e-001  7.7486923e-001  1.1552667e+000  7.8657531e-001  7.9913018e-001  8.1470788e-001  8.6192875e-001
  5.6830216e-001  6.9013628e-001  7.6724257e-001  1.8189203e+000  6.5070357e-001  8.2845398e-001  8.9621645e-001  1.2014745e+000  1.5697086e+000  1.0851006e+000  1.2596219e+000  1.2754502e+000  1.5040532e+000  8.7562947e-001  7.3714900e-001  9.8108172e-001  3.5649325e-001  3.5041073e-001  1.3870537e+000  1.0558535e+000  9.8792878e-001  1.2651392e+000  1.4596560e+000  4.7130842e-001  1.9057390e-001  8.5932555e-001  8.3782450e-001  1.1677842e+000  7.2108247e-001  8.2253396e-001  7.9594096e-001  8.6658031e-001
  5.3324566e-001  7.3052951e-001  7.1799790e-001  1.9050114e+000  6.2664372e-001  8.3524081e-001  8.8358880e-001  1.1983238e+000  1.5572903e+000  1.0670904e+000  1.2413373e+000  1.2404771e+000  1.4401325e+000  8.8193299e-001  7.0984614e-001  9.7756911e-001  3.6666849e-001  3.2564641e-001  1.3938473e+000  1.0474987e+000  1.0036343e+000  1.2695702e+000  1.4200050e+000  4.9762788e-001  2.0343286e-001  8.9803325e-001  9.0292116e-001  1.1751698e+000  6.6060034e-001  8.4390066e-001  7.8156247e-001  8.6614220e-001
  5.0362683e-001  7.7572757e-001  6.6906958e-001  1.9811781e+000  6.0355854e-001  8.4191512e-001  8.7023305e-001  1.1939808e+000  1.5314040e+000  1.0530419e+000  1.2186719e+000  1.2129355e+000  1.3715598e+000  8.7855620e-001  6.8703082e-001  9.6849509e-001  3.8195926e-001  3.0695280e-001  1.3934533e+000  1.0343234e+000  1.0115436e+000  1.2611974e+000  1.3655190e+000  5.2437620e-001  2.1797319e-001  9.3491821e-001  9.6968670e-001  1.1806646e+000  6.0553359e-001  8.6368634e-001  7.7185581e-001  8.6036076e-001
  4.7867661e-001  8.2513036e-001  6.2179855e-001  2.0457538e+000  5.8176729e-001  8.4871962e-001  8.5611235e-001  1.1885721e+000  1.4917615e+000  1.0430652e+000  1.1926024e+000  1.1920225e+000  1.2989506e+000  8.6705571e-001  6.6782199e-001  9.5367843e-001  4.0229578e-001  2.9428071e-001  1.3856004e+000  1.0171445e+000  1.0124786e+000  1.2407310e+000  1.3006215e+000  5.5137834e-001  2.3405175e-001  9.6898360e-001  1.0372274e+000  1.1868652e+000  5.5595322e-001  8.8262349e-001  7.6659269e-001  8.4904016e-001
  4.5808841e-001  8.7805710e-001  5.7664480e-001  2.0941957e+000  5.6172717e-001  8.5576837e-001  8.4117060e-001  1.1820097e+000  1.4379044e+000  1.0364601e+000  1.1627463e+000  1.1761935e+000  1.2223513e+000  8.4892041e-001  6.5084547e-001  9.3367798e-001  4.2726794e-001  2.8755217e-001  1.3705315e+000  9.9718381e-001  1.0079804e+000  1.2097745e+000  1.2291987e+000  5.7842874e-001  2.5153497e-001  9.9942699e-001  1.1047802e+000  1.1950461e+000  5.1172772e-001  9.0184855e-001  7.6522661e-001  8.3334563e-001
  4.4131059e-001  9.3332769e-001  5.3468893e-001  2.1246567e+000  5.4378441e-001  8.6294532e-001  8.2557587e-001  1.1736617e+000  1.3739821e+000  1.0328963e+000  1.1299661e+000  1.1633222e+000  1.1423035e+000  8.2539614e-001  6.3525271e-001  9.0920409e-001  4.5631023e-001  2.8699201e-001  1.3485857e+000  9.7573067e-001  9.9972247e-001  1.1714310e+000  1.1548651e+000  6.0530073e-001  2.7034839e-001  1.0253516e+000  1.1715664e+000  1.2050359e+000  4.7263663e-001  9.2226133e-001  7.6725738e-001  8.1484069e-001
  4.2795298e-001  9.8987786e-001  4.9584194e-001  2.1362234e+000  5.2841881e-001  8.7004206e-001  8.0945384e-001  1.1634504e+000  1.3021280e+000  1.0313010e+000  1.0945815e+000  1.1516344e+000  1.0606672e+000  7.9833623e-001  6.2040468e-001  8.8093343e-001  4.8909518e-001  2.9175784e-001  1.3207193e+000  9.5380313e-001  9.8968720e-001  1.1287871e+000  1.0807145e+000  6.3176118e-001  2.9011607e-001  1.0457093e+000  1.2364486e+000  1.2155581e+000  4.3843338e-001  9.4442778e-001  7.7223080e-001  7.9474330e-001
  4.1795641e-001  1.0463029e+000  4.6090924e-001  2.1259400e+000  5.1581400e-001  8.7667445e-001  7.9296819e-001  1.1514543e+000  1.2255871e+000  1.0311705e+000  1.0576183e+000  1.1397895e+000  9.7990453e-001  7.6885193e-001  6.0588804e-001  8.4981741e-001  5.2540755e-001  3.0134490e-001  1.2884441e+000  9.3212785e-001  9.7887503e-001  1.0841871e+000  1.0091289e+000  6.5750756e-001  3.1046375e-001  1.0593118e+000  1.2985690e+000  1.2247795e+000  4.0894590e-001  9.6858990e-001  7.7941252e-001  7.7386661e-001
  4.1074995e-001  1.1010725e+000  4.2952442e-001  2.0973837e+000  5.0629902e-001  8.8254435e-001  7.7610804e-001  1.1381178e+000  1.1468074e+000  1.0316891e+000  1.0195817e+000  1.1267038e+000  9.0235571e-001  7.3771537e-001  5.9124975e-001  8.1720078e-001  5.6491912e-001  3.1519860e-001  1.2529125e+000  9.1125213e-001  9.6764233e-001  1.0393704e+000  9.4142496e-001  6.8209421e-001  3.3094314e-001  1.0648156e+000  1.3569379e+000  1.2312774e+000  3.8363505e-001  9.9491673e-001  7.8830111e-001  7.5286683e-001
  4.0629892e-001  1.1528266e+000  4.0198052e-001  2.0517110e+000  4.9990274e-001  8.8724542e-001  7.5857597e-001  1.1240124e+000  1.0679243e+000  1.0326971e+000  9.8134331e-001  1.1118571e+000  8.2962882e-001  7.0561790e-001  5.7601180e-001  7.8500446e-001  6.0725274e-001  3.3261427e-001  1.2150953e+000  8.9159920e-001  9.5582912e-001  9.9537278e-001  8.7844851e-001  7.0515436e-001  3.5100930e-001  1.0615492e+000  1.4094588e+000  1.2336674e+000  3.6220258e-001  1.0231877e+000  7.9857604e-001  7.3220640e-001
  4.0378422e-001  1.1996677e+000  3.7772408e-001  1.9909983e+000  4.9684663e-001  8.9036984e-001  7.4009723e-001  1.1090666e+000  9.9059190e-001  1.0339940e+000  9.4381114e-001  1.0948337e+000  7.6263547e-001  6.7375268e-001  5.5993747e-001  7.5521846e-001  6.5179260e-001  3.5256414e-001  1.1753792e+000  8.7335048e-001  9.4320613e-001  9.5262521e-001  8.2136272e-001  7.2638053e-001  3.7035123e-001  1.0496060e+000  1.4548725e+000  1.2306653e+000  3.4463052e-001  1.0530604e+000  8.1017112e-001  7.1220387e-001
  4.0292169e-001  1.2409169e+000  3.5659692e-001  1.9189523e+000  4.9696229e-001  8.9163882e-001  7.2056790e-001  1.0929498e+000  9.1602756e-001  1.0353639e+000  9.0786262e-001  1.0746106e+000  7.0176720e-001  6.4323807e-001  5.4302359e-001  7.2929951e-001  6.9767456e-001  3.7432507e-001  1.1338855e+000  8.5636003e-001  9.2964138e-001  9.1130978e-001  7.7140285e-001  7.4543081e-001  3.8903674e-001  1.0299807e+000  1.4919526e+000  1.2224326e+000  3.3106834e-001  1.0841573e+000  8.2326703e-001  6.9317465e-001
  4.0274426e-001  1.2741996e+000  3.3817150e-001  1.8375528e+000  5.0021571e-001  8.9012769e-001  6.9961880e-001  1.0747238e+000  8.4497397e-001  1.0364381e+000  8.7434096e-001  1.0494165e+000  6.4694611e-001  6.1493628e-001  5.2536630e-001  7.0805862e-001  7.4366060e-001  3.9713063e-001  1.0905365e+000  8.4008774e-001  9.1488796e-001  8.7132223e-001  7.2888329e-001  7.6249994e-001  4.0742504e-001  1.0041997e+000  1.5192051e+000  1.2105099e+000  3.2160880e-001  1.1159423e+000  8.3800428e-001  6.7537658e-001
  4.0258105e-001  1.2993053e+000  3.2224385e-001  1.7504461e+000  5.0619990e-001  8.8510760e-001  6.7719101e-001  1.0534540e+000  7.7744642e-001  1.0367832e+000  8.4387396e-001  1.0172148e+000  5.9789763e-001  5.8966235e-001  5.0691720e-001  6.9171830e-001  7.8809221e-001  4.1994796e-001  1.0450701e+000  8.2385545e-001  8.9825617e-001  8.3193171e-001  6.9391130e-001  7.7759151e-001  4.2589280e-001  9.7467587e-001  1.5367252e+000  1.1967356e+000  3.1611690e-001  1.1471728e+000  8.5461025e-001  6.5904776e-001
  4.0171738e-001  1.3135963e+000  3.0869110e-001  1.6605471e+000  5.1473553e-001  8.7634135e-001  6.5335531e-001  1.0290015e+000  7.1426957e-001  1.0361264e+000  8.1688119e-001  9.7660907e-001  5.5445356e-001  5.6807476e-001  4.8743830e-001  6.7982832e-001  8.2917728e-001  4.4165994e-001  9.9719312e-001  8.0690580e-001  8.7879594e-001  7.9220138e-001  6.6624455e-001  7.9076615e-001  4.4459173e-001  9.4471165e-001  1.5449646e+000  1.1819758e+000  3.1421803e-001  1.1759335e+000  8.7312581e-001  6.4414116e-001
  3.9951401e-001  1.3185568e+000  2.9730674e-001  1.5706071e+000  5.2547914e-001  8.6318564e-001  6.2827315e-001  1.0013603e+000  6.5520100e-001  1.0344024e+000  7.9360618e-001  9.2789460e-001  5.1656412e-001  5.5049420e-001  4.6703108e-001  6.7120584e-001  8.6540345e-001  4.6106956e-001  9.4717124e-001  7.8832308e-001  8.5571301e-001  7.5129425e-001  6.4532563e-001  8.0262026e-001  4.6346640e-001  9.1705798e-001  1.5443465e+000  1.1661305e+000  3.1532240e-001  1.1997499e+000  8.9283335e-001  6.3053062e-001
  3.9569490e-001  1.3121390e+000  2.8809347e-001  1.4827900e+000  5.3835286e-001  8.4634106e-001  6.0236370e-001  9.7165030e-001  6.0058047e-001  1.0317363e+000  7.7392448e-001  8.7292077e-001  4.8430532e-001  5.3727848e-001  4.4640068e-001  6.6413146e-001  8.9611376e-001  4.7683106e-001  8.9533469e-001  7.6763136e-001  8.2879925e-001  7.0882359e-001  6.2938497e-001  8.1391513e-001  4.8223847e-001  8.9392481e-001  1.5365854e+000  1.1484496e+000  3.1854789e-001  1.2160374e+000  9.1244728e-001  6.1819416e-001
  3.9007314e-001  1.2970248e+000  2.8070029e-001  1.3982919e+000  5.5299576e-001  8.2666059e-001  5.7593424e-001  9.4069457e-001  5.5044880e-001  1.0281575e+000  7.5770620e-001  8.1412757e-001  4.5768067e-001  5.2881720e-001  4.2645873e-001  6.5672692e-001  9.2172715e-001  4.8843005e-001  8.4252483e-001  7.4447381e-001  7.9882474e-001  6.6524629e-001  6.1670037e-001  8.2546999e-001  5.0053184e-001  8.7698250e-001  1.5242036e+000  1.1274781e+000  3.2300253e-001  1.2225664e+000  9.3047256e-001  6.0741016e-001
  3.8260319e-001  1.2724037e+000  2.7509608e-001  1.3178570e+000  5.6903910e-001  8.0468331e-001  5.4940146e-001  9.0977382e-001  5.0421657e-001  1.0233198e+000  7.4437362e-001  7.5375362e-001  4.3656447e-001  5.2561752e-001  4.0808181e-001  6.4726608e-001  9.4336447e-001  4.9589884e-001  7.9017594e-001  7.1839649e-001  7.6662025e-001  6.2118806e-001  6.0530704e-001  8.3812769e-001  5.1805730e-001  8.6741614e-001  1.5093876e+000  1.1018703e+000  3.2773062e-001  1.2201434e+000  9.4514361e-001  5.9878497e-001
  3.7344382e-001  1.2412255e+000  2.7083888e-001  1.2409886e+000  5.8581012e-001  7.8161552e-001  5.2310491e-001  8.7980556e-001  4.6236647e-001  1.0168944e+000  7.3369274e-001  6.9380917e-001  4.2075815e-001  5.2756518e-001  3.9205944e-001  6.3446333e-001  9.6219470e-001  4.9942338e-001  7.3991483e-001  6.8935869e-001  7.3289569e-001  5.7730977e-001  5.9364184e-001  8.5231837e-001  5.3446195e-001  8.6555464e-001  1.4945987e+000  1.0719034e+000  3.3197338e-001  1.2105478e+000  9.5427294e-001  5.9316987e-001
  3.6268067e-001  1.2036061e+000  2.6789850e-001  1.1676989e+000  6.0243954e-001  7.5825111e-001  4.9745415e-001  8.5153849e-001  4.2457333e-001  1.0080370e+000  7.2502568e-001  6.3586726e-001  4.1000095e-001  5.3470163e-001  3.7922421e-001  6.1772531e-001  9.7872959e-001  4.9918591e-001  6.9320108e-001  6.5834350e-001  6.9824229e-001  5.3442669e-001  5.8118171e-001  8.6832306e-001  5.4915168e-001  8.7075025e-001  1.4814954e+000  1.0388052e+000  3.3518753e-001  1.1960681e+000  9.5547893e-001  5.9097598e-001
  3.5077972e-001  1.1619778e+000  2.6583872e-001  1.0976453e+000  6.1796309e-001  7.3543000e-001  4.7283109e-001  8.2503970e-001  3.9095167e-001  9.9660267e-001  7.1799315e-001  5.8101059e-001  4.0379052e-001  5.4690530e-001  3.6983437e-001  5.9736603e-001  9.9256576e-001  4.9631368e-001  6.5059423e-001  6.2690855e-001  6.6346102e-001  4.9310549e-001  5.6819724e-001  8.8651719e-001  5.6188215e-001  8.8233842e-001  1.4708054e+000  1.0037922e+000  3.3695930e-001  1.1789175e+000  9.4686986e-001  5.9257179e-001
  3.3815697e-001  1.1171341e+000  2.6461177e-001  1.0304473e+000  6.3120477e-001  7.1362975e-001  4.4946317e-001  8.0044990e-001  3.6175293e-001  9.8150227e-001  7.1189643e-001  5.3007951e-001  4.0127181e-001  5.6417928e-001  3.6397033e-001  5.7430277e-001  1.0029081e+000  4.9185525e-001  6.1223347e-001  5.9627108e-001  6.2927610e-001  4.5372408e-001  5.5531101e-001  9.0680882e-001  5.7242083e-001  8.9954755e-001  1.4626506e+000  9.6781160e-001  3.3694161e-001  1.1613765e+000  9.2753817e-001  5.9837749e-001
  3.2548056e-001  1.0706920e+000  2.6390702e-001  9.6642413e-001  6.4152070e-001  6.9321944e-001  4.2774052e-001  7.7701275e-001  3.3644045e-001  9.6275691e-001  7.0637448e-001  4.8379579e-001  4.0163941e-001  5.8570625e-001  3.6151783e-001  5.4963537e-001  1.0089711e+000  4.8675415e-001  5.7796305e-001  5.6740886e-001  5.9622058e-001  4.1662861e-001  5.4300546e-001  9.2935098e-001  5.8069206e-001  9.2160954e-001  1.4556647e+000  9.3104980e-001  3.3517391e-001  1.1451048e+000  8.9871377e-001  6.0846973e-001
  3.1344803e-001  1.0237553e+000  2.6363710e-001  9.0543171e-001  6.4812424e-001  6.7462354e-001  4.0753840e-001  7.5430163e-001  3.1527818e-001  9.3887469e-001  7.0102524e-001  4.4280125e-001  4.0454308e-001  6.1104527e-001  3.6218038e-001  5.2428708e-001  1.0100471e+000  4.8177967e-001  5.4759034e-001  5.4109712e-001  5.6471849e-001  3.8228317e-001  5.3125894e-001  9.5418902e-001  5.8712053e-001  9.4748105e-001  1.4479720e+000  8.9326903e-001  3.3215868e-001  1.1314471e+000  8.6264102e-001  6.2230808e-001
  3.0251632e-001  9.7734182e-001  2.6354242e-001  8.4761901e-001  6.5108565e-001  6.5759891e-001  3.8879004e-001  7.3202596e-001  2.9767318e-001  9.1025998e-001  6.9557429e-001  4.0733399e-001  4.0968800e-001  6.3970467e-001  3.6544859e-001  4.9878848e-001  1.0058150e+000  4.7735417e-001  5.2103177e-001  5.1765216e-001  5.3503066e-001  3.5076671e-001  5.1958588e-001  9.8060105e-001  5.9271791e-001  9.7525291e-001  1.4371871e+000  8.5449024e-001  3.2842540e-001  1.1216501e+000  8.2178927e-001  6.3923174e-001
  2.9334635e-001  9.3223499e-001  2.6341452e-001  7.9363358e-001  6.5017825e-001  6.4212162e-001  3.7149170e-001  7.1013034e-001  2.8325197e-001  8.7626575e-001  6.8976391e-001  3.7734825e-001  4.1636408e-001  6.7121088e-001  3.7048831e-001  4.7350588e-001  9.9664276e-001  4.7367563e-001  4.9824460e-001  4.9689387e-001  5.0774780e-001  3.2218520e-001  5.0733791e-001  1.0074729e+000  5.9836429e-001  1.0033239e+000  1.4212676e+000  8.1484542e-001  3.2431681e-001  1.1169173e+000  7.7870878e-001  6.5854580e-001
  2.8612557e-001  8.8864495e-001  2.6305062e-001  7.4328794e-001  6.4578388e-001  6.2803462e-001  3.5539608e-001  6.8861577e-001  2.7192240e-001  8.3784636e-001  6.8307064e-001  3.5262443e-001  4.2362248e-001  7.0454760e-001  3.7619833e-001  4.4878706e-001  9.8385369e-001  4.7082774e-001  4.7921430e-001  4.7867343e-001  4.8366797e-001  2.9660073e-001  4.9391579e-001  1.0331544e+000  6.0490665e-001  1.0300993e+000  1.3991460e+000  7.7409727e-001  3.1993980e-001  1.1172188e+000  7.3555013e-001  6.7936596e-001
  2.8128558e-001  8.4678695e-001  2.6232049e-001  6.9688468e-001  6.3779095e-001  6.1477091e-001  3.4054525e-001  6.6726540e-001  2.6296530e-001  7.9552634e-001  6.7535685e-001  3.3289561e-001  4.3055914e-001  7.3843035e-001  3.8183588e-001  4.2496332e-001  9.6968966e-001  4.6876848e-001  4.6410806e-001  4.6292206e-001  4.6346907e-001  2.7411313e-001  4.7900876e-001  1.0551814e+000  6.1322209e-001  1.0539688e+000  1.3692034e+000  7.3207878e-001  3.1527868e-001  1.1222357e+000  6.9393003e-001  7.0076522e-001
  2.7891809e-001  8.0649681e-001  2.6127097e-001  6.5431427e-001  6.2652684e-001  6.0185535e-001  3.2700585e-001  6.4576714e-001  2.5620955e-001  7.5048667e-001  6.6617810e-001  3.1791265e-001  4.3616701e-001  7.7118619e-001  3.8699459e-001  4.0232790e-001  9.5627518e-001  4.6731335e-001  4.5292394e-001  4.4976775e-001  4.4716733e-001  2.5469103e-001  4.6263230e-001  1.0715937e+000  6.2385725e-001  1.0730374e+000  1.3291435e+000  6.8926348e-001  3.1029146e-001  1.1311030e+000  6.5510213e-001  7.2170563e-001
  2.7912012e-001  7.6766440e-001  2.5998568e-001  6.1495170e-001  6.1171176e-001  5.8864247e-001  3.1472200e-001  6.2385989e-001  2.5118339e-001  7.0346053e-001  6.5562547e-001  3.0740761e-001  4.3918232e-001  8.0045691e-001  3.9138085e-001  3.8127864e-001  9.4489287e-001  4.6640948e-001  4.4552480e-001  4.3925695e-001  4.3466703e-001  2.3848349e-001  4.4488067e-001  1.0805386e+000  6.3728455e-001  1.0851571e+000  1.2793523e+000  6.4662435e-001  3.0494463e-001  1.1420626e+000  6.2026102e-001  7.4082110e-001
  2.8196053e-001  7.2990696e-001  2.5852872e-001  5.7863706e-001  5.9362127e-001  5.7462888e-001  3.0385230e-001  6.0149691e-001  2.4759031e-001  6.5527886e-001  6.4325815e-001  3.0105561e-001  4.3837360e-001  8.2349541e-001  3.9468065e-001  3.6231064e-001  9.3623768e-001  4.6603218e-001  4.4184538e-001  4.3147389e-001  4.2569471e-001  2.2573065e-001  4.2601354e-001  1.0795179e+000  6.5408800e-001  1.0887593e+000  1.2208679e+000  6.0517906e-001  2.9953441e-001  1.1520460e+000  5.9042704e-001  7.5699870e-001
  2.8721488e-001  6.9272101e-001  2.5692545e-001  5.4472339e-001  5.7212661e-001  5.5921259e-001  2.9431444e-001  5.7868563e-001  2.4539528e-001  6.0685005e-001  6.2928123e-001  2.9841216e-001  4.3275185e-001  8.3833055e-001  3.9685493e-001  3.4577264e-001  9.3065406e-001  4.6590456e-001  4.4193024e-001  4.2647902e-001  4.1938916e-001  2.1644214e-001  4.0642634e-001  1.0689482e+000  6.7440867e-001  1.0830312e+000  1.1551444e+000  5.6599278e-001  2.9466601e-001  1.1573972e+000  5.6641404e-001  7.6947392e-001
  2.9490163e-001  6.5561476e-001  2.5519314e-001  5.1280680e-001  5.4787668e-001  5.4202412e-001  2.8595136e-001  5.5559733e-001  2.4426894e-001  5.5918922e-001  6.1357829e-001  2.9878790e-001  4.2181707e-001  8.4388563e-001  3.9797903e-001  3.3171419e-001  9.2830338e-001  4.6565330e-001  4.4572981e-001  4.2436497e-001  4.1466762e-001  2.1032970e-001  3.8669697e-001  1.0490812e+000  6.9781379e-001  1.0676146e+000  1.0853544e+000  5.3039894e-001  2.9089065e-001  1.1542903e+000  5.4871941e-001  7.7765299e-001
  3.0445177e-001  6.1835685e-001  2.5334134e-001  4.8273050e-001  5.2135673e-001  5.2307216e-001  2.7867216e-001  5.3259112e-001  2.4420040e-001  5.1301558e-001  5.9668012e-001  3.0120001e-001  4.0603786e-001  8.4029075e-001  3.9801902e-001  3.1995731e-001  9.2985050e-001  4.6508017e-001  4.5323275e-001  4.2516549e-001  4.1072461e-001  2.0724370e-001  3.6730394e-001  1.0202069e+000  7.2367413e-001  1.0428581e+000  1.0136150e+000  4.9965420e-001  2.8862036e-001  1.1396863e+000  5.3738379e-001  7.8070434e-001
  3.1569924e-001  5.8100210e-001  2.5130639e-001  4.5402100e-001  4.9345866e-001  5.0227762e-001  2.7200771e-001  5.1010618e-001  2.4505052e-001  4.6931211e-001  5.7885567e-001  3.0437499e-001  3.8674095e-001  8.2887637e-001  3.9682695e-001  3.1031360e-001  9.3631340e-001  4.6405309e-001  4.6426190e-001  4.2843344e-001  4.0732381e-001  2.0715500e-001  3.4869588e-001  9.8443538e-001  7.5108944e-001  1.0100876e+000  9.4198758e-001  4.7446752e-001  2.8810694e-001  1.1117878e+000  5.3205040e-001  7.7845348e-001
  3.2786794e-001  5.4384346e-001  2.4904916e-001  4.2662017e-001  4.6489723e-001  4.8010572e-001  2.6552870e-001  4.8853588e-001  2.4667870e-001  4.2815517e-001  5.6048540e-001  3.0712238e-001  3.6554731e-001  8.1172782e-001  3.9403844e-001  3.0268016e-001  9.4800638e-001  4.6243303e-001  4.7851228e-001  4.3392095e-001  4.0460456e-001  2.0972208e-001  3.3132241e-001  9.4397648e-001  7.7862520e-001  9.7188437e-001  8.7234324e-001  4.5493355e-001  2.8940725e-001  1.0720611e+000  5.3208016e-001  7.7042234e-001
  3.4048460e-001  5.0740179e-001  2.4650837e-001  4.0036720e-001  4.3641483e-001  4.5701122e-001  2.5863660e-001  4.6821419e-001  2.4925860e-001  3.9040624e-001  5.4182232e-001  3.0848085e-001  3.4403366e-001  7.9035430e-001  3.8889814e-001  2.9691541e-001  9.6398046e-001  4.6022178e-001  4.9574441e-001  4.4130828e-001  4.0272638e-001  2.1446721e-001  3.1534093e-001  9.0082976e-001  8.0510207e-001  9.3022923e-001  8.0591292e-001  4.4059941e-001  2.9242211e-001  1.0231994e+000  5.3660369e-001  7.5641885e-001
  3.5298706e-001  4.7219627e-001  2.4373219e-001  3.7494559e-001  4.0869031e-001  4.3340469e-001  2.5102526e-001  4.4935541e-001  2.5278079e-001  3.5565487e-001  5.2332066e-001  3.0781471e-001  3.2338554e-001  7.6625316e-001  3.8090340e-001  2.9266376e-001  9.8246653e-001  4.5763622e-001  5.1558772e-001  4.5016396e-001  4.0176839e-001  2.2091816e-001  3.0079274e-001  8.5717847e-001  8.2963731e-001  8.8675497e-001  7.4382931e-001  4.3047510e-001  2.9707580e-001  9.6787561e-001  5.4445095e-001  7.3623621e-001
  3.6498481e-001  4.3890748e-001  2.4066404e-001  3.5028211e-001  3.8210895e-001  4.0983245e-001  2.4250614e-001  4.3250078e-001  2.5738224e-001  3.2458536e-001  5.0546801e-001  3.0513710e-001  3.0429249e-001  7.4085400e-001  3.7017935e-001  2.8963791e-001  1.0021306e+000  4.5499208e-001  5.3760383e-001  4.5998466e-001  4.0175834e-001  2.2847979e-001  2.8762616e-001  8.1471855e-001  8.5144062e-001  8.4260714e-001  6.8681367e-001  4.2307185e-001  3.0341982e-001  9.0883071e-001  5.5383239e-001  7.1067779e-001
  3.7623742e-001  4.0783543e-001  2.3733945e-001  3.2635909e-001  3.5714979e-001  3.8664624e-001  2.3301048e-001  4.1758502e-001  2.6304356e-001  2.9666780e-001  4.8867164e-001  3.0101215e-001  2.8704242e-001  7.1561085e-001  3.5746497e-001  2.8762841e-001  1.0225742e+000  4.5253029e-001  5.6125804e-001  4.7033640e-001  4.0252503e-001  2.3626485e-001  2.7577945e-001  7.7472302e-001  8.7031986e-001  7.9850666e-001  6.3462225e-001  4.1686461e-001  3.1168096e-001  8.4860170e-001  5.6255414e-001  6.8022016e-001
  3.8642162e-001  3.7958771e-001  2.3365150e-001  3.0327515e-001  3.3385330e-001  3.6429281e-001  2.2272075e-001  4.0493476e-001  2.6953871e-001  2.7222426e-001  4.7326810e-001  2.9608777e-001  2.7173188e-001  6.9145533e-001  3.4363133e-001  2.8643343e-001  1.0435587e+000  4.5027624e-001  5.8568489e-001  4.8086123e-001  4.0391487e-001  2.4347532e-001  2.6512962e-001  7.3867561e-001  8.8585631e-001  7.5486627e-001  5.8706213e-001  4.1078435e-001  3.2195224e-001  7.8910862e-001  5.6840221e-001  6.4548026e-001
  3.9521650e-001  3.5400239e-001  2.2956150e-001  2.8143710e-001  3.1247818e-001  3.4283898e-001  2.1180237e-001  3.9428500e-001  2.7677437e-001  2.5081037e-001  4.5952141e-001  2.9097993e-001  2.5837698e-001  6.6892379e-001  3.2940313e-001  2.8583647e-001  1.0640838e+000  4.4809301e-001  6.0977716e-001  4.9117341e-001  4.0570823e-001  2.4947834e-001  2.5556475e-001  7.0682571e-001  8.9764945e-001  7.1171230e-001  5.4403225e-001  4.0424518e-001  3.3408103e-001  7.3142196e-001  5.6970020e-001  6.0747107e-001
  4.0224886e-001  3.3151361e-001  2.2482540e-001  2.6099336e-001  2.9281095e-001  3.2241957e-001  2.0059453e-001  3.8535772e-001  2.8443431e-001  2.3254069e-001  4.4756633e-001  2.8627123e-001  2.4711660e-001  6.4846643e-001  3.1543139e-001  2.8557583e-001  1.0826477e+000  4.4563921e-001  6.3249779e-001  5.0069455e-001  4.0767213e-001  2.5387142e-001  2.4710459e-001  6.7934304e-001  9.0519205e-001  6.6886149e-001  5.0461020e-001  3.9727156e-001  3.4766310e-001  6.7612001e-001  5.6559717e-001  5.6758693e-001
  4.0691878e-001  3.1161992e-001  2.1930388e-001  2.4212140e-001  2.7489263e-001  3.0324659e-001  1.8941768e-001  3.7780088e-001  2.9223735e-001  2.1718089e-001  4.3757865e-001  2.8236481e-001  2.3816239e-001  6.3013448e-001  3.0219537e-001  2.8540448e-001  1.0976578e+000  4.4251227e-001  6.5335328e-001  5.0857859e-001  4.0951104e-001  2.5691948e-001  2.3980997e-001  6.5647913e-001  9.0859446e-001  6.2622230e-001  4.6826895e-001  3.9052835e-001  3.6207560e-001  6.2362108e-001  5.5610336e-001  5.2691586e-001
  4.0894755e-001  2.9467121e-001  2.1279713e-001  2.2496721e-001  2.5835677e-001  2.8513572e-001  1.7867509e-001  3.7103809e-001  2.9971790e-001  2.0458106e-001  4.2951899e-001  2.7945518e-001  2.3162730e-001  6.1383269e-001  2.9000667e-001  2.8523501e-001  1.1073863e+000  4.3830061e-001  6.7222146e-001  5.1379140e-001  4.1088779e-001  2.5905522e-001  2.3372880e-001  6.3783910e-001  9.0810907e-001  5.8414854e-001  4.3466249e-001  3.8469417e-001  3.7652120e-001  5.7426512e-001  5.4206826e-001  4.8663119e-001
  4.0753220e-001  2.8003842e-001  2.0544074e-001  2.0924235e-001  2.4310965e-001  2.6810544e-001  1.6861026e-001  3.6463720e-001  3.0644829e-001  1.9454547e-001  4.2348349e-001  2.7755640e-001  2.2749983e-001  5.9960287e-001  2.7902007e-001  2.8515078e-001  1.1100180e+000  4.3251809e-001  6.8899908e-001  5.1539667e-001  4.1149225e-001  2.6075572e-001  2.2882659e-001  6.2296213e-001  9.0411801e-001  5.4331605e-001  4.0342770e-001  3.8031047e-001  3.8997324e-001  5.2834195e-001  5.2493768e-001  4.4792318e-001
  4.0281630e-001  2.6806644e-001  1.9741130e-001  1.9486380e-001  2.2886217e-001  2.5217317e-001  1.5940334e-001  3.5822013e-001  3.1189544e-001  1.8675104e-001  4.1925685e-001  2.7662129e-001  2.2568668e-001  5.8784469e-001  2.6924113e-001  2.8525689e-001  1.1045178e+000  4.2479839e-001  7.0382079e-001  5.1281279e-001  4.1120416e-001  2.6253950e-001  2.2518617e-001  6.1153726e-001  8.9701477e-001  5.0430838e-001  3.7467513e-001  3.7766802e-001  4.0119665e-001  4.8608973e-001  5.0647706e-001  4.1163781e-001
  3.9398513e-001  2.5814264e-001  1.8902208e-001  1.8164758e-001  2.1562314e-001  2.3715246e-001  1.5123343e-001  3.5171984e-001  3.1595297e-001  1.8115921e-001  4.1690808e-001  2.7651509e-001  2.2613127e-001  5.7894367e-001  2.6063029e-001  2.8557041e-001  1.0911273e+000  4.1516704e-001  7.1713896e-001  5.0565014e-001  4.0993968e-001  2.6491660e-001  2.2291184e-001  6.0316472e-001  8.8739227e-001  4.6775908e-001  3.4880850e-001  3.7665666e-001  4.0903494e-001  4.4753636e-001  4.8826185e-001  3.7847423e-001
  3.8190120e-001  2.5063392e-001  1.8051405e-001  1.6947472e-001  2.0326589e-001  2.2312410e-001  1.4401287e-001  3.4522959e-001  3.1857687e-001  1.7733636e-001  4.1614125e-001  2.7693778e-001  2.2879986e-001  5.7312530e-001  2.5311448e-001  2.8606518e-001  1.0709864e+000  4.0378913e-001  7.2964462e-001  4.9452840e-001  4.0736106e-001  2.6828562e-001  2.2215987e-001  5.9716368e-001  8.7593853e-001  4.3420634e-001  3.2603516e-001  3.7710782e-001  4.1291969e-001  4.1271035e-001  4.7141675e-001  3.4909192e-001
  3.6652459e-001  2.4493695e-001  1.7209244e-001  1.5847497e-001  1.9195557e-001  2.1014571e-001  1.3777738e-001  3.3884581e-001  3.1959193e-001  1.7520518e-001  4.1710886e-001  2.7745557e-001  2.3351245e-001  5.7083825e-001  2.4667731e-001  2.8666093e-001  1.0459879e+000  3.9104743e-001  7.4187808e-001  4.7994344e-001  4.0287893e-001  2.7294525e-001  2.2275029e-001  5.9295617e-001  8.6383196e-001  4.0404308e-001  3.0627573e-001  3.7897250e-001  4.1296853e-001  3.8110879e-001  4.5668684e-001  3.2369497e-001
  3.4902131e-001  2.4121513e-001  1.6388170e-001  1.4854517e-001  1.8165806e-001  1.9814383e-001  1.3245303e-001  3.3271089e-001  3.1908320e-001  1.7420953e-001  4.1958619e-001  2.7751916e-001  2.3993326e-001  5.7277487e-001  2.4143588e-001  2.8719912e-001  1.0179816e+000  3.7777308e-001  7.5376103e-001  4.6240942e-001  3.9621282e-001  2.7919017e-001  2.2452533e-001  5.8985235e-001  8.5249879e-001  3.7760509e-001  2.8959258e-001  3.8189653e-001  4.0984039e-001  3.5263505e-001  4.4452623e-001  3.0214992e-001
  3.2990943e-001  2.3892881e-001  1.5599220e-001  1.3966286e-001  1.7260089e-001  1.8727397e-001  1.2783534e-001  3.2697602e-001  3.1680130e-001  1.7426902e-001  4.2383593e-001  2.7654544e-001  2.4764987e-001  5.7954976e-001  2.3752645e-001  2.8742905e-001  9.8815646e-001  3.6476206e-001  7.6491654e-001  4.4252390e-001  3.8740279e-001  2.8695146e-001  2.2732124e-001  5.8687792e-001  8.4273366e-001  3.5479787e-001  2.7601568e-001  3.8521638e-001  4.0431525e-001  3.2739280e-001  4.3512406e-001  2.8439749e-001
  3.0997197e-001  2.3817607e-001  1.4845044e-001  1.3194015e-001  1.6470884e-001  1.7752086e-001  1.2378629e-001  3.2192871e-001  3.1294262e-001  1.7503411e-001  4.2959527e-001  2.7417094e-001  2.5632307e-001  5.9102050e-001  2.3496516e-001  2.8713678e-001  9.5679903e-001  3.5265152e-001  7.7470693e-001  4.2120398e-001  3.7660605e-001  2.9612422e-001  2.3108457e-001  5.8333648e-001  8.3488460e-001  3.3543123e-001  2.6499427e-001  3.8836633e-001  3.9718182e-001  3.0558242e-001  4.2850836e-001  2.7050959e-001
  2.8968519e-001  2.3867253e-001  1.4135716e-001  1.2526824e-001  1.5814412e-001  1.6878078e-001  1.2001911e-001  3.1772052e-001  3.0782041e-001  1.7656859e-001  4.3722887e-001  2.7033094e-001  2.6588909e-001  6.0689862e-001  2.3362732e-001  2.8623102e-001  9.2333334e-001  3.4215558e-001  7.8206221e-001  3.9951577e-001  3.6408197e-001  3.0644784e-001  2.3585334e-001  5.7860279e-001  8.2934310e-001  3.1916120e-001  2.5611217e-001  3.9113542e-001  3.8921455e-001  2.8725126e-001  4.2487380e-001  2.6018279e-001
  2.6949119e-001  2.4054723e-001  1.3468257e-001  1.1975319e-001  1.5271798e-001  1.6117436e-001  1.1633597e-001  3.1445083e-001  3.0175861e-001  1.7875623e-001  4.4641635e-001  2.6515513e-001  2.7656183e-001  6.2653944e-001  2.3324347e-001  2.8470023e-001  8.8711912e-001  3.3367985e-001  7.8554334e-001  3.7849120e-001  3.5042380e-001  3.1743637e-001  2.4177057e-001  5.7254972e-001  8.2630533e-001  3.0555024e-001  2.4890222e-001  3.9343551e-001  3.8079639e-001  2.7206603e-001  4.2459021e-001  2.5321011e-001
  2.4968390e-001  2.4356014e-001  1.2850397e-001  1.1545145e-001  1.4848275e-001  1.5459144e-001  1.1268265e-001  3.1218998e-001  2.9533824e-001  1.8168644e-001  4.5738404e-001  2.5876919e-001  2.8874385e-001  6.4889463e-001  2.3370686e-001  2.8265028e-001  8.4806287e-001  3.2749319e-001  7.8417570e-001  3.5919784e-001  3.3610685e-001  3.2834420e-001  2.4899391e-001  5.6542156e-001  8.2606738e-001  2.9410643e-001  2.4255269e-001  3.9527976e-001  3.7205720e-001  2.5974464e-001  4.2783458e-001  2.4944987e-001
  2.3053646e-001  2.4770931e-001  1.2270155e-001  1.1225564e-001  1.4517972e-001  1.4895165e-001  1.0911633e-001  3.1070507e-001  2.8897962e-001  1.8536933e-001  4.6956169e-001  2.5124309e-001  3.0279840e-001  6.7217518e-001  2.3500327e-001  2.8017609e-001  8.0630525e-001  3.2381314e-001  7.7692114e-001  3.4272944e-001  3.2153799e-001  3.3835523e-001  2.5770422e-001  5.5743390e-001  8.2888394e-001  2.8424600e-001  2.3665004e-001  3.9686775e-001  3.6322639e-001  2.4989106e-001  4.3455182e-001  2.4889090e-001
  2.1214601e-001  2.5274176e-001  1.1729498e-001  1.1023480e-001  1.4275417e-001  1.4436433e-001  1.0571897e-001  3.0983545e-001  2.8306997e-001  1.8998440e-001  4.8279442e-001  2.4277438e-001  3.1888979e-001  6.9467647e-001  2.3719666e-001  2.7724543e-001  7.6212410e-001  3.2302449e-001  7.6279660e-001  3.2976270e-001  3.0707461e-001  3.4646468e-001  2.6797744e-001  5.4886908e-001  8.3491582e-001  2.7537515e-001  2.3104781e-001  3.9831048e-001  3.5482281e-001  2.4210757e-001  4.4430100e-001  2.5103642e-001
  1.9476149e-001  2.5856832e-001  1.1217527e-001  1.0926346e-001  1.4092129e-001  1.4062237e-001  1.0260633e-001  3.0924312e-001  2.7778115e-001  1.9563643e-001  4.9654118e-001  2.3355391e-001  3.3682875e-001  7.1463471e-001  2.4037109e-001  2.7372191e-001  7.1614821e-001  3.2503137e-001  7.4150182e-001  3.2070136e-001  2.9291188e-001  3.5174362e-001  2.7960661e-001  5.4006458e-001  8.4338091e-001  2.6696291e-001  2.2585189e-001  3.9951806e-001  3.4767126e-001  2.3569418e-001  4.5634056e-001  2.5546110e-001
  1.7832311e-001  2.6498677e-001  1.0735848e-001  1.0924831e-001  1.3951793e-001  1.3763080e-001  9.9847325e-002  3.0880785e-001  2.7335508e-001  2.0240675e-001  5.1039131e-001  2.2385383e-001  3.5604926e-001  7.2975001e-001  2.4448870e-001  2.6934106e-001  6.6922464e-001  3.2999368e-001  7.1385709e-001  3.1572382e-001  2.7913354e-001  3.5410029e-001  2.9227489e-001  5.3122927e-001  8.5359803e-001  2.5860358e-001  2.2126015e-001  4.0051640e-001  3.4268066e-001  2.2995241e-001  4.7003605e-001  2.6171137e-001
  1.6316180e-001  2.7178998e-001  1.0277967e-001  1.1024833e-001  1.3829257e-001  1.3546333e-001  9.7576005e-002  3.0855916e-001  2.6977548e-001  2.1040851e-001  5.2378881e-001  2.1415994e-001  3.7569955e-001  7.3812354e-001  2.4924723e-001  2.6377022e-001  6.2269789e-001  3.3814984e-001  6.8162044e-001  3.1474392e-001  2.6579386e-001  3.5380067e-001  3.0554515e-001  5.2259691e-001  8.6486429e-001  2.5016463e-001  2.1749655e-001  4.0184002e-001  3.4073561e-001  2.2421566e-001  4.8512800e-001  2.6939113e-001
  1.4915723e-001  2.7866258e-001  9.8450861e-002  1.1201677e-001  1.3706944e-001  1.3393942e-001  9.5894306e-002  3.0866096e-001  2.6725864e-001  2.1968207e-001  5.3611684e-001  2.0491778e-001  3.9460374e-001  7.3848338e-001  2.5426921e-001  2.5676270e-001  5.7806726e-001  3.4969932e-001  6.4715384e-001  3.1759080e-001  2.5289250e-001  3.5141071e-001  3.1887512e-001  5.1435639e-001  8.7615906e-001  2.4173899e-001  2.1480067e-001  4.0431942e-001  3.4225084e-001  2.1784496e-001  5.0179177e-001  2.7786799e-001
  1.3657233e-001  2.8519240e-001  9.4341713e-002  1.1443638e-001  1.3572626e-001  1.3307903e-001  9.4804117e-002  3.0940807e-001  2.6608380e-001  2.3050725e-001  5.4696915e-001  1.9637544e-001  4.1123031e-001  7.3081443e-001  2.5914211e-001  2.4831082e-001  5.3682522e-001  3.6434579e-001  6.1209093e-001  3.2359011e-001  2.4031930e-001  3.4764871e-001  3.3171519e-001  5.0655345e-001  8.8629605e-001  2.3353389e-001  2.1327687e-001  4.0862009e-001  3.4741961e-001  2.1032163e-001  5.2049209e-001  2.8662573e-001
  1.2524711e-001  2.9093936e-001  9.0473178e-002  1.1733723e-001  1.3420308e-001  1.3299252e-001  9.4389760e-002  3.1083641e-001  2.6640080e-001  2.4283862e-001  5.5563645e-001  1.8862533e-001  4.2389825e-001  7.1611033e-001  2.6349267e-001  2.3852651e-001  5.0041243e-001  3.8189796e-001  5.7775156e-001  3.3237622e-001  2.2800903e-001  3.4306864e-001  3.4350093e-001  4.9906649e-001  8.9429595e-001  2.2572985e-001  2.1305232e-001  4.1519664e-001  3.5610161e-001  2.0161163e-001  5.4135510e-001  2.9513793e-001
  1.1529183e-001  2.9548383e-001  8.6849460e-002  1.2049660e-001  1.3255807e-001  1.3355685e-001  9.4615848e-002  3.1305483e-001  2.6873291e-001  2.5698764e-001  5.6185120e-001  1.8170193e-001  4.3096556e-001  6.9631197e-001  2.6711074e-001  2.2751632e-001  4.7009491e-001  4.0204031e-001  5.4510206e-001  3.4360566e-001  2.1606454e-001  3.3800853e-001  3.5363036e-001  4.9155242e-001  8.9908313e-001  2.1845456e-001  2.1432129e-001  4.2419113e-001  3.6794035e-001  1.9192090e-001  5.6411108e-001  3.0294750e-001
  1.0659674e-001  2.9853775e-001  8.3479268e-002  1.2376583e-001  1.3084733e-001  1.3478381e-001  9.5445758e-002  3.1592741e-001  2.7305922e-001  2.7265111e-001  5.6537715e-001  1.7563436e-001  4.3107590e-001  6.7325015e-001  2.6996427e-001  2.1552072e-001  4.4674534e-001  4.2401381e-001  5.1472686e-001  3.5702755e-001  2.0481075e-001  3.3270023e-001  3.6133384e-001  4.8350456e-001  8.9921405e-001  2.1181700e-001  2.1690558e-001  4.3531906e-001  3.8261338e-001  1.8158890e-001  5.8814730e-001  3.0998486e-001
  9.9132417e-002  3.0006277e-001  8.0357045e-002  1.2698508e-001  1.2915529e-001  1.3669722e-001  9.6927774e-002  3.1925036e-001  2.7955843e-001  2.9002575e-001  5.6643611e-001  1.7051092e-001  4.2409942e-001  6.4850341e-001  2.7207152e-001  2.0289526e-001  4.3075189e-001  4.4677872e-001  4.8703698e-001  3.7229599e-001  1.9457390e-001  3.2724957e-001  3.6632201e-001  4.7419630e-001  8.9332248e-001  2.0592589e-001  2.2067671e-001  4.4813937e-001  3.9989399e-001  1.7102804e-001  6.1241753e-001  3.1633273e-001
  9.2814900e-002  3.0005317e-001  7.7478160e-002  1.3003381e-001  1.2760689e-001  1.3918963e-001  9.8910329e-002  3.2269388e-001  2.8823908e-001  3.0859872e-001  5.6507990e-001  1.6638161e-001  4.1108800e-001  6.2341560e-001  2.7347352e-001  1.9003512e-001  4.2192303e-001  4.6922773e-001  4.6200197e-001  3.8897569e-001  1.8567702e-001  3.2171764e-001  3.6857166e-001  4.6288659e-001  8.8036480e-001  2.0087670e-001  2.2553564e-001  4.6227545e-001  4.1956366e-001  1.6076338e-001  6.3559255e-001  3.2224624e-001
  8.7524717e-002  2.9876342e-001  7.4863292e-002  1.3273576e-001  1.2628738e-001  1.4229506e-001  1.0129256e-001  3.2593271e-001  2.9866706e-001  3.2821438e-001  5.6147823e-001  1.6331491e-001  3.9359397e-001  5.9908046e-001  2.7422553e-001  1.7733948e-001  4.1945752e-001  4.8988376e-001  4.3940040e-001  4.0683908e-001  1.7853558e-001  3.1621691e-001  3.6838347e-001  4.4949046e-001  8.5979491e-001  1.9670780e-001  2.3120811e-001  4.7727932e-001  4.4120034e-001  1.5126067e-001  6.5643891e-001  3.2807723e-001
  8.3295427e-002  2.9627066e-001  7.2499836e-002  1.3497733e-001  1.2533649e-001  1.4599436e-001  1.0391104e-001  3.2871928e-001  3.1060566e-001  3.4828509e-001  5.5590327e-001  1.6146987e-001  3.7318400e-001  5.7626972e-001  2.7446901e-001  1.6514876e-001  4.2199196e-001  5.0731365e-001  4.1870279e-001  4.2568252e-001  1.7335718e-001  3.1095507e-001  3.6622779e-001  4.3408075e-001  8.3280908e-001  1.9337366e-001  2.3744557e-001  4.9269517e-001  4.6417394e-001  1.4290896e-001  6.7378626e-001  3.3410768e-001
  8.0016121e-002  2.9281898e-001  7.0435102e-002  1.3662065e-001  1.2476601e-001  1.5016613e-001  1.0653524e-001  3.3117845e-001  3.2330127e-001  3.6827767e-001  5.4879661e-001  1.6098390e-001  3.5126981e-001  5.5578271e-001  2.7453819e-001  1.5368120e-001  4.2787598e-001  5.2063576e-001  3.9914107e-001  4.4510053e-001  1.7019716e-001  3.0613615e-001  3.6278883e-001  4.1673647e-001  8.0114055e-001  1.9067976e-001  2.4400113e-001  5.0832298e-001  4.8777224e-001  1.3599627e-001  6.8639692e-001  3.4051412e-001
  7.7863258e-002  2.8846831e-001  6.8662585e-002  1.3749825e-001  1.2468439e-001  1.5476505e-001  1.0895931e-001  3.3356899e-001  3.3609660e-001  3.8752948e-001  5.4066899e-001  1.6190835e-001  3.2894403e-001  5.3838415e-001  2.7481963e-001  1.4306502e-001  4.3543379e-001  5.2928561e-001  3.8003210e-001  4.6443731e-001  1.6904943e-001  3.0191851e-001  3.5858274e-001  3.9808051e-001  7.6621012e-001  1.8830950e-001  2.5065329e-001  5.2393063e-001  5.1118934e-001  1.3083125e-001  6.9321948e-001  3.4736639e-001
  7.6680509e-002  2.8354392e-001  6.7266180e-002  1.3763519e-001  1.2505299e-001  1.5965529e-001  1.1101607e-001  3.3624796e-001  3.4804818e-001  4.0532071e-001  5.3194374e-001  1.6422006e-001  3.0689315e-001  5.2473599e-001  2.7557735e-001  1.3342388e-001  4.4310591e-001  5.3279347e-001  3.6119977e-001  4.8324855e-001  1.6994374e-001  2.9838595e-001  3.5386494e-001  3.7859062e-001  7.2897765e-001  1.8586673e-001  2.5728293e-001  5.3874033e-001  5.3371627e-001  1.2741023e-001  6.9365382e-001  3.5457298e-001
  7.6660136e-002  2.7821040e-001  6.6207574e-002  1.3693907e-001  1.2602529e-001  1.6471319e-001  1.1267890e-001  3.3941732e-001  3.5836227e-001  4.2096947e-001  5.2298811e-001  1.6778057e-001  2.8550113e-001  5.1491330e-001  2.7693879e-001  1.2493679e-001  4.4940652e-001  5.3188747e-001  3.4286809e-001  5.0150141e-001  1.7255933e-001  2.9562184e-001  3.4871799e-001  3.5875778e-001  6.9044680e-001  1.8302590e-001  2.6378243e-001  5.5190075e-001  5.5471351e-001  1.2576543e-001  6.8775025e-001  3.6193995e-001
  7.7586901e-002  2.7266220e-001  6.5570569e-002  1.3542014e-001  1.2761295e-001  1.6988093e-001  1.1392757e-001  3.4333083e-001  3.6593736e-001  4.3399044e-001  5.1410008e-001  1.7232952e-001  2.6507275e-001  5.0918145e-001  2.7891299e-001  1.1765234e-001  4.5328953e-001  5.2709836e-001  3.2550521e-001  5.1936906e-001  1.7669318e-001  2.9358395e-001  3.4313995e-001  3.3902560e-001  6.5142779e-001  1.7974941e-001  2.6996954e-001  5.6312566e-001  5.7349002e-001  1.2587834e-001  6.7563537e-001  3.6921399e-001
  7.9563847e-002  2.6688772e-001  6.5285874e-002  1.3318176e-001  1.3005051e-001  1.7508079e-001  1.1485117e-001  3.4794691e-001  3.7028909e-001  4.4388174e-001  5.0553692e-001  1.7749423e-001  2.4601029e-001  5.0775960e-001  2.8143896e-001  1.1159212e-001  4.5451056e-001  5.1897569e-001  3.0971980e-001  5.3684564e-001  1.8216452e-001  2.9214563e-001  3.3713045e-001  3.1967402e-001  6.1276777e-001  1.7622267e-001  2.7562191e-001  5.7267666e-001  5.8926469e-001  1.2772658e-001  6.5750027e-001  3.7592943e-001
  8.2441814e-002  2.6087212e-001  6.5429571e-002  1.3022859e-001  1.3331184e-001  1.8023422e-001  1.1553344e-001  3.5335498e-001  3.7116499e-001  4.5063275e-001  4.9764870e-001  1.8297839e-001  2.2870178e-001  5.1115156e-001  2.8432230e-001  1.0677272e-001  4.5333455e-001  5.0805379e-001  2.9608516e-001  5.5372893e-001  1.8878408e-001  2.9110687e-001  3.3071705e-001  3.0090923e-001  5.7548409e-001  1.7267347e-001  2.8046708e-001  5.8074766e-001  6.0156029e-001  1.3116954e-001  6.3372423e-001  3.8147187e-001
  8.6273073e-002  2.5442925e-001  6.5937580e-002  1.2675285e-001  1.3765680e-001  1.8521528e-001  1.1603726e-001  3.5949930e-001  3.6815062e-001  4.5381561e-001  4.9054074e-001  1.8868206e-001  2.1339993e-001  5.1912593e-001  2.8714952e-001  1.0318378e-001  4.5013696e-001  4.9514292e-001  2.8501340e-001  5.6950435e-001  1.9617426e-001  2.9025463e-001  3.2403706e-001  2.8283136e-001  5.4019975e-001  1.6936018e-001  2.8415632e-001  5.8718704e-001  6.1024672e-001  1.3589993e-001  6.0485004e-001  3.8552301e-001
  9.1019531e-002  2.4747665e-001  6.6863392e-002  1.2290948e-001  1.4299722e-001  1.8994338e-001  1.1644517e-001  3.6630702e-001  3.6191207e-001  4.5380109e-001  4.8445273e-001  1.9464071e-001  2.0026163e-001  5.3145342e-001  2.8943211e-001  1.0078441e-001  4.4511774e-001  4.8068043e-001  2.7667298e-001  5.8330813e-001  2.0408232e-001  2.8939836e-001  3.1722273e-001  2.6546305e-001  5.0729258e-001  1.6664065e-001  2.8663218e-001  5.9179360e-001  6.1523023e-001  1.4162410e-001  5.7156060e-001  3.8808460e-001
  9.6683971e-002  2.3965342e-001  6.8168981e-002  1.1886772e-001  1.4958224e-001  1.9434579e-001  1.1676864e-001  3.7371504e-001  3.5258323e-001  4.5016996e-001  4.7927412e-001  2.0093019e-001  1.8944239e-001  5.4771574e-001  2.9068826e-001  9.9550328e-002  4.3869020e-001  4.6509200e-001  2.7100911e-001  5.9383359e-001  2.1227013e-001  2.8850508e-001  3.1035716e-001  2.4895623e-001  4.7693327e-001  1.6487034e-001  2.8781618e-001  5.9451624e-001  6.1624604e-001  1.4801281e-001  5.3482262e-001  3.8934993e-001
  1.0324943e-001  2.3100508e-001  6.9892814e-002  1.1483027e-001  1.5726672e-001  1.9825959e-001  1.1695873e-001  3.8156527e-001  3.4093172e-001  4.4378893e-001  4.7515872e-001  2.0767221e-001  1.8112650e-001  5.6732500e-001  2.9052559e-001  9.9517883e-002  4.3175752e-001  4.4893791e-001  2.6804177e-001  5.9950569e-001  2.2048019e-001  2.8759634e-001  3.0351567e-001  2.3366127e-001  4.4910235e-001  1.6435545e-001  2.8745505e-001  5.9529718e-001  6.1310630e-001  1.5468516e-001  4.9587003e-001  3.8965839e-001
  1.1060404e-001  2.2134455e-001  7.1998487e-002  1.1092791e-001  1.6628196e-001  2.0172005e-001  1.1696222e-001  3.8989025e-001  3.2762026e-001  4.3466097e-001  4.7184862e-001  2.1497859e-001  1.7543706e-001  5.8895222e-001  2.8864134e-001  1.0075764e-001  4.2548547e-001  4.3282402e-001  2.6778232e-001  5.9913283e-001  2.2851425e-001  2.8655000e-001  2.9674393e-001  2.1966234e-001  4.2372809e-001  1.6534937e-001  2.8528617e-001  5.9427645e-001  6.0583711e-001  1.6112547e-001  4.5630755e-001  3.8910989e-001
  1.1874716e-001  2.1096201e-001  7.4483886e-002  1.0726925e-001  1.7640130e-001  2.0473183e-001  1.1671230e-001  3.9859095e-001  3.1299614e-001  4.2390432e-001  4.6936283e-001  2.2287642e-001  1.7233409e-001  6.1096728e-001  2.8492376e-001  1.0334183e-001  4.2109673e-001  4.1717180e-001  2.7025026e-001  5.9191045e-001  2.3624915e-001  2.8514147e-001  2.9006660e-001  2.0714528e-001  4.0108840e-001  1.6809477e-001  2.8111852e-001  5.9190018e-001  5.9472477e-001  1.6677689e-001  4.1762634e-001  3.8763654e-001
  1.2752572e-001  1.9998153e-001  7.7332918e-002  1.0387602e-001  1.8778174e-001  2.0732137e-001  1.1620945e-001  4.0758134e-001  2.9765785e-001  4.1202227e-001  4.6734413e-001  2.3124251e-001  1.7157511e-001  6.3141678e-001  2.7949626e-001  1.0724869e-001  4.1947220e-001  4.0231301e-001  2.7553350e-001  5.7795252e-001  2.4353758e-001  2.8320080e-001  2.8355646e-001  1.9646394e-001  3.8155719e-001  1.7281807e-001  2.7483795e-001  5.8832855e-001  5.8040503e-001  1.7115519e-001  3.8101259e-001  3.8489899e-001
  1.3699115e-001  1.8871062e-001  8.0568416e-002  1.0078058e-001  2.0018307e-001  2.0966067e-001  1.1551776e-001  4.1674001e-001  2.8195095e-001  3.9975739e-001  4.6548799e-001  2.3979828e-001  1.7271976e-001  6.4773254e-001  2.7252745e-001  1.1243479e-001  4.2104629e-001  3.8832609e-001  2.8350870e-001  5.5803591e-001  2.5020434e-001  2.8066219e-001  2.7730250e-001  1.8782190e-001  3.6513181e-001  1.7944579e-001  2.6674773e-001  5.8297121e-001  5.6383011e-001  1.7401741e-001  3.4747891e-001  3.8069622e-001
  1.4701455e-001  1.7733544e-001  8.4286494e-002  9.7964622e-002  2.1377155e-001  2.1187197e-001  1.1465969e-001  4.2596834e-001  2.6631689e-001  3.8750137e-001  4.6326111e-001  2.4812668e-001  1.7517229e-001  6.5715675e-001  2.6428271e-001  1.1879157e-001  4.2582094e-001  3.7496519e-001  2.9389602e-001  5.3396326e-001  2.5618220e-001  2.7760526e-001  2.7138844e-001  1.8135250e-001  3.5141351e-001  1.8788090e-001  2.5759112e-001  5.7515562e-001  5.4545190e-001  1.7543848e-001  3.1785748e-001  3.7495773e-001
  1.5771879e-001  1.6606762e-001  8.8584031e-002  9.5425431e-002  2.2832568e-001  2.1410949e-001  1.1364647e-001  4.3508858e-001  2.5111728e-001  3.7555759e-001  4.5991369e-001  2.5583964e-001  1.7833804e-001  6.5840256e-001  2.5519811e-001  1.2609782e-001  4.3330316e-001  3.6192852e-001  3.0654659e-001  5.0726189e-001  2.6153299e-001  2.7419293e-001  2.6596651e-001  1.7726592e-001  3.3991924e-001  1.9797683e-001  2.4795303e-001  5.6480775e-001  5.2527139e-001  1.7586704e-001  2.9274953e-001  3.6782329e-001
  1.6902550e-001  1.5515353e-001  9.3671962e-002  9.3270747e-002  2.4399787e-001  2.1647840e-001  1.1246116e-001  4.4383233e-001  2.3691908e-001  3.6413103e-001  4.5508650e-001  2.6267256e-001  1.8185735e-001  6.5112954e-001  2.4581996e-001  1.3401984e-001  4.4282035e-001  3.4896716e-001  3.2129853e-001  4.7905139e-001  2.6649134e-001  2.7054321e-001  2.6119263e-001  1.7573450e-001  3.3004214e-001  2.0955304e-001  2.3839113e-001  5.5208468e-001  5.0291542e-001  1.7565283e-001  2.7224346e-001  3.5972739e-001
  1.8102473e-001  1.4474243e-001  9.9584751e-002  9.1555540e-002  2.6059548e-001  2.1905134e-001  1.1104674e-001  4.5186042e-001  2.2407791e-001  3.5329497e-001  4.4827306e-001  2.6849753e-001  1.8548062e-001  6.3575735e-001  2.3687074e-001  1.4214663e-001  4.5365174e-001  3.3589994e-001  3.3790152e-001  4.5011012e-001  2.7136916e-001  2.6676863e-001  2.5706481e-001  1.7665895e-001  3.2104031e-001  2.2242101e-001  2.2927983e-001  5.3747655e-001  4.7776118e-001  1.7506385e-001  2.5635350e-001  3.5150721e-001
  1.9365680e-001  1.3506744e-001  1.0652208e-001  9.0370584e-002  2.7836924e-001  2.2185315e-001  1.0940583e-001  4.5902179e-001  2.1312328e-001  3.4305528e-001  4.3964896e-001  2.7316045e-001  1.8900655e-001  6.1300825e-001  2.2899082e-001  1.5001397e-001  4.6522868e-001  3.2262556e-001  3.5598607e-001  4.2088384e-001  2.7633784e-001  2.6290711e-001  2.5345869e-001  1.8006004e-001  3.1253799e-001  2.3620408e-001  2.2082946e-001  5.2208979e-001  4.4951557e-001  1.7428908e-001  2.4486595e-001  3.4386595e-001
  2.0695885e-001  1.2623555e-001  1.1437258e-001  8.9810243e-002  2.9719281e-001  2.2485444e-001  1.0753235e-001  4.6533164e-001  2.0459045e-001  3.3365123e-001  4.2918686e-001  2.7636877e-001  1.9233650e-001  5.8483029e-001  2.2267289e-001  1.5717823e-001  4.7707269e-001  3.0901836e-001  3.7486893e-001  3.9163895e-001  2.8145168e-001  2.5889900e-001  2.5014957e-001  1.8610469e-001  3.0436124e-001  2.5041751e-001  2.1324062e-001  5.0712998e-001  4.1879629e-001  1.7345335e-001  2.3731367e-001  3.3742347e-001
  2.2088846e-001  1.1845636e-001  1.2330791e-001  8.9854975e-002  3.1731287e-001  2.2808071e-001  1.0545401e-001  4.7091761e-001  1.9865829e-001  3.2545244e-001  4.1729137e-001  2.7781831e-001  1.9549354e-001  5.5286853e-001  2.1831252e-001  1.6328654e-001  4.8835158e-001  2.9481077e-001  3.9365605e-001  3.6263039e-001  2.8665621e-001  2.5461864e-001  2.4686904e-001  1.9434382e-001  2.9665842e-001  2.6446414e-001  2.0659845e-001  4.9337834e-001  3.8682953e-001  1.7260430e-001  2.3299438e-001  3.3267097e-001
